   0.0000000e+00	   1.4464000e-01	   1.4404000e+00	   4.2689000e+00	  -9.2554000e+00	  -2.8426000e+00	   2.2286000e-01	  -2.5650000e+00	  -1.0849000e+01	
   2.0000000e-03	  -1.5536000e-01	   1.4039000e-01	   3.3689000e+00	  -1.0555000e+01	  -2.0426000e+00	  -2.1777000e+01	  -1.6565000e+01	  -6.8493000e+00	
   4.0000000e-03	   2.1446000e+00	   5.4039000e-01	   4.4689000e+00	  -7.7554000e+00	   1.5743000e-01	  -3.7771000e+00	  -8.5650000e+00	  -1.8849000e+01	
   6.0000000e-03	   1.9446000e+00	  -2.2596000e+00	   8.6893000e-01	  -8.5554000e+00	   4.5743000e-01	  -1.1777000e+01	  -2.0565000e+01	  -2.8849000e+01	
   8.0000000e-03	   3.3446000e+00	  -7.5961000e-01	   2.2689000e+00	  -6.9554000e+00	   1.6574000e+00	  -9.7771000e+00	  -2.6565000e+01	  -2.8849000e+01	
   1.0000000e-02	   3.0446000e+00	  -2.3596000e+00	   2.5689000e+00	  -7.7554000e+00	   1.6574000e+00	  -5.7771000e+00	  -3.2565000e+01	  -3.0849000e+01	
   1.2000000e-02	   4.1446000e+00	  -3.8596000e+00	   3.1689000e+00	  -6.8554000e+00	   1.8574000e+00	  -1.3777000e+01	  -4.0565000e+01	  -5.4849000e+01	
   1.4000000e-02	   4.0446000e+00	  -4.7596000e+00	   3.2689000e+00	  -8.6554000e+00	   2.7574000e+00	  -1.3777000e+01	  -3.6565000e+01	  -3.4849000e+01	
   1.6000000e-02	   5.9446000e+00	  -2.8596000e+00	   3.1689000e+00	  -5.2554000e+00	   4.4574000e+00	  -3.7771000e+00	  -2.4565000e+01	  -3.2849000e+01	
   1.8000000e-02	   2.9446000e+00	  -3.4596000e+00	   7.6893000e-01	  -7.3554000e+00	   3.8574000e+00	  -3.7771000e+00	  -2.4565000e+01	  -3.6849000e+01	
   2.0000000e-02	  -1.3554000e+00	  -2.9596000e+00	   2.0689000e+00	  -6.3554000e+00	   3.5574000e+00	  -1.1777000e+01	  -2.8565000e+01	  -6.0849000e+01	
   2.2000000e-02	  -3.4554000e+00	  -5.4596000e+00	   2.0689000e+00	  -6.3554000e+00	   4.6574000e+00	   2.2229000e+00	  -1.0565000e+01	  -2.6849000e+01	
   2.4000000e-02	  -9.5536000e-01	  -3.8596000e+00	   4.5689000e+00	  -5.9554000e+00	   6.3574000e+00	  -1.7771000e+00	  -1.2565000e+01	  -1.0849000e+01	
   2.6000000e-02	   9.4464000e-01	  -4.8596000e+00	   3.3689000e+00	  -6.1554000e+00	   6.1574000e+00	  -7.7771000e+00	  -2.4565000e+01	  -1.2849000e+01	
   2.8000000e-02	   3.5446000e+00	  -2.6596000e+00	   4.6689000e+00	  -2.8554000e+00	   7.0574000e+00	   8.2229000e+00	  -1.4565000e+01	  -2.2849000e+01	
   3.0000000e-02	   2.5446000e+00	  -3.2596000e+00	   2.4689000e+00	  -2.4554000e+00	   4.2574000e+00	   2.2229000e+00	  -1.2565000e+01	  -2.4849000e+01	
   3.2000000e-02	   2.8446000e+00	  -1.8596000e+00	   1.4689000e+00	  -2.8554000e+00	   2.9574000e+00	   2.2286000e-01	  -2.0565000e+01	  -2.8849000e+01	
   3.4000000e-02	   2.0446000e+00	  -2.5596000e+00	  -3.8311000e+00	  -3.9554000e+00	  -1.0426000e+00	  -2.5777000e+01	  -2.6565000e+01	  -1.4849000e+01	
   3.6000000e-02	   1.1446000e+00	  -2.5961000e-01	  -3.0311000e+00	   3.4457000e-01	  -9.4257000e-01	   2.2286000e-01	  -1.6565000e+01	  -4.8493000e+00	
   3.8000000e-02	   9.4464000e-01	  -2.2596000e+00	  -2.6311000e+00	   8.4457000e-01	   1.5743000e-01	   6.2229000e+00	  -5.6500000e-01	  -2.8493000e+00	
   4.0000000e-02	  -1.0554000e+00	  -1.5596000e+00	  -1.4311000e+00	   1.4446000e+00	   9.5743000e-01	  -5.7771000e+00	  -4.5650000e+00	  -8.4929000e-01	
   4.2000000e-02	  -2.5554000e+00	  -1.1596000e+00	  -2.3107000e-01	   3.4457000e-01	   1.4574000e+00	  -1.7777000e+01	  -1.0565000e+01	  -8.8493000e+00	
   4.4000000e-02	  -3.9554000e+00	  -3.8596000e+00	   4.6893000e-01	  -1.0554000e+00	   1.4574000e+00	  -1.5777000e+01	  -2.8565000e+01	  -2.0849000e+01	
   4.6000000e-02	  -2.1554000e+00	  -4.3596000e+00	   1.9689000e+00	   4.4457000e-01	   4.7574000e+00	   3.0223000e+01	  -3.4565000e+01	  -2.6849000e+01	
   4.8000000e-02	  -2.1554000e+00	  -7.5596000e+00	   1.5689000e+00	   9.4457000e-01	   6.8574000e+00	   5.4223000e+01	  -4.6565000e+01	  -1.2849000e+01	
   5.0000000e-02	  -4.9554000e+00	  -1.1760000e+01	   2.4689000e+00	   3.9446000e+00	   9.4574000e+00	   7.4223000e+01	  -2.4565000e+01	   3.1507000e+00	
   5.2000000e-02	  -5.1554000e+00	  -1.2760000e+01	   1.7689000e+00	   4.9446000e+00	   6.4574000e+00	   6.2223000e+01	  -5.6500000e-01	   2.5151000e+01	
   5.4000000e-02	  -9.2554000e+00	  -7.4596000e+00	  -3.7311000e+00	   5.9446000e+00	  -2.9426000e+00	   2.0223000e+01	   8.9435000e+01	   1.2515000e+02	
   5.6000000e-02	  -1.4855000e+01	   4.6404000e+00	  -1.2231000e+01	   9.9446000e+00	  -1.5643000e+01	  -7.5777000e+01	   2.4144000e+02	   2.7515000e+02	
   5.8000000e-02	  -2.5355000e+01	   1.8840000e+01	  -2.7231000e+01	   1.2745000e+01	  -3.4143000e+01	  -2.2578000e+02	   4.2543000e+02	   4.5515000e+02	
   6.0000000e-02	  -3.2955000e+01	   4.2940000e+01	  -4.2531000e+01	   1.2345000e+01	  -5.4543000e+01	  -4.0578000e+02	   5.7143000e+02	   5.7715000e+02	
   6.2000000e-02	  -3.8355000e+01	   6.3540000e+01	  -5.4331000e+01	   1.0045000e+01	  -6.7443000e+01	  -5.4378000e+02	   7.1343000e+02	   7.0915000e+02	
   6.4000000e-02	  -4.4755000e+01	   7.8940000e+01	  -6.3131000e+01	   7.1446000e+00	  -8.2443000e+01	  -6.6778000e+02	   8.1543000e+02	   7.7315000e+02	
   6.6000000e-02	  -4.6755000e+01	   9.0840000e+01	  -6.9731000e+01	  -1.2554000e+00	  -9.0843000e+01	  -6.2978000e+02	   8.2143000e+02	   6.6515000e+02	
   6.8000000e-02	  -2.7455000e+01	   9.7640000e+01	  -5.9031000e+01	  -1.5055000e+01	  -7.8643000e+01	  -4.3978000e+02	   5.7543000e+02	   2.8315000e+02	
   7.0000000e-02	   4.4446000e+00	   8.8040000e+01	  -3.5431000e+01	  -2.7755000e+01	  -5.2443000e+01	  -2.0378000e+02	   2.6744000e+02	  -5.6849000e+01	
   7.2000000e-02	   2.4245000e+01	   6.3440000e+01	  -1.4631000e+01	  -3.5455000e+01	  -2.6743000e+01	  -4.5777000e+01	  -3.8565000e+01	  -2.7085000e+02	
   7.4000000e-02	   3.3945000e+01	   3.5940000e+01	   4.5689000e+00	  -3.4255000e+01	  -3.6426000e+00	   9.8223000e+01	  -2.4856000e+02	  -4.0885000e+02	
   7.6000000e-02	   3.3545000e+01	   9.1404000e+00	   1.3169000e+01	  -2.4455000e+01	   1.2357000e+01	   1.9822000e+02	  -2.5656000e+02	  -3.3485000e+02	
   7.8000000e-02	   2.5645000e+01	  -1.1160000e+01	   1.8569000e+01	  -1.2155000e+01	   2.1557000e+01	   1.9422000e+02	  -2.4656000e+02	  -2.6485000e+02	
   8.0000000e-02	   1.6245000e+01	  -2.3960000e+01	   1.9269000e+01	  -3.3554000e+00	   2.5457000e+01	   1.7822000e+02	  -2.2256000e+02	  -1.8685000e+02	
   8.2000000e-02	   1.0745000e+01	  -3.0060000e+01	   1.7869000e+01	   1.3446000e+00	   2.5657000e+01	   1.5822000e+02	  -2.1856000e+02	  -1.5285000e+02	
   8.4000000e-02	   7.1446000e+00	  -3.1660000e+01	   1.8569000e+01	   4.9446000e+00	   2.5757000e+01	   1.5422000e+02	  -2.0256000e+02	  -1.2485000e+02	
   8.6000000e-02	   5.9446000e+00	  -3.1160000e+01	   1.6769000e+01	   4.7446000e+00	   2.3957000e+01	   1.3822000e+02	  -2.1456000e+02	  -1.3685000e+02	
   8.8000000e-02	   3.4446000e+00	  -3.1560000e+01	   1.3169000e+01	   3.5446000e+00	   2.2357000e+01	   1.3422000e+02	  -2.0056000e+02	  -1.1485000e+02	
   9.0000000e-02	   4.0446000e+00	  -3.0060000e+01	   1.5369000e+01	   6.2446000e+00	   2.2757000e+01	   1.2222000e+02	  -1.9056000e+02	  -1.1085000e+02	
   9.2000000e-02	   2.3446000e+00	  -2.9760000e+01	   1.3969000e+01	   9.2446000e+00	   2.1857000e+01	   1.2022000e+02	  -1.7856000e+02	  -1.0085000e+02	
   9.4000000e-02	   2.2446000e+00	  -2.9660000e+01	   1.4069000e+01	   6.7446000e+00	   2.0457000e+01	   1.1422000e+02	  -1.6856000e+02	  -9.4849000e+01	
   9.6000000e-02	   3.5446000e+00	  -2.7560000e+01	   1.4369000e+01	   5.5446000e+00	   1.7657000e+01	   1.0222000e+02	  -1.7456000e+02	  -1.1285000e+02	
   9.8000000e-02	   3.4446000e+00	  -2.7960000e+01	   1.4769000e+01	   4.8446000e+00	   1.6057000e+01	   1.0822000e+02	  -1.3856000e+02	  -8.8849000e+01	
   1.0000000e-01	   3.6446000e+00	  -2.3160000e+01	   1.3769000e+01	   5.6446000e+00	   1.6357000e+01	   1.0622000e+02	  -1.2656000e+02	  -7.4849000e+01	
   1.0200000e-01	   4.1446000e+00	  -2.0560000e+01	   1.5969000e+01	   7.6446000e+00	   1.7057000e+01	   1.0422000e+02	  -1.0656000e+02	  -5.6849000e+01	
   1.0400000e-01	   4.3446000e+00	  -2.0360000e+01	   1.4769000e+01	   5.7446000e+00	   1.5957000e+01	   7.6223000e+01	  -1.1456000e+02	  -6.2849000e+01	
   1.0600000e-01	   3.5446000e+00	  -1.8460000e+01	   1.2769000e+01	   4.8446000e+00	   1.4357000e+01	   8.4223000e+01	  -1.0656000e+02	  -6.8849000e+01	
   1.0800000e-01	   2.0446000e+00	  -1.4460000e+01	   7.1689000e+00	   4.1446000e+00	   1.1157000e+01	   7.2223000e+01	  -1.0056000e+02	  -7.0849000e+01	
   1.1000000e-01	   2.0446000e+00	  -1.1360000e+01	   5.4689000e+00	   6.1446000e+00	   9.2574000e+00	   7.2223000e+01	  -9.6565000e+01	  -6.6849000e+01	
   1.1200000e-01	   1.5446000e+00	  -1.0760000e+01	   5.4689000e+00	   7.2446000e+00	   9.0574000e+00	   7.0223000e+01	  -7.4565000e+01	  -6.2849000e+01	
   1.1400000e-01	   5.4464000e-01	  -1.3060000e+01	   3.6689000e+00	   5.7446000e+00	   9.1574000e+00	   5.8223000e+01	  -6.2565000e+01	  -4.4849000e+01	
   1.1600000e-01	   1.2446000e+00	  -1.2460000e+01	   3.7689000e+00	   4.9446000e+00	   8.8574000e+00	   4.2223000e+01	  -7.6565000e+01	  -5.4849000e+01	
   1.1800000e-01	   1.7446000e+00	  -1.2660000e+01	   5.0689000e+00	   4.5446000e+00	   7.4574000e+00	   4.0223000e+01	  -6.2565000e+01	  -4.8849000e+01	
   1.2000000e-01	   4.4464000e-01	  -1.1760000e+01	   3.8689000e+00	  -5.5429000e-02	   5.3574000e+00	   3.2223000e+01	  -5.0565000e+01	  -1.0849000e+01	
   1.2200000e-01	   5.4464000e-01	  -9.5596000e+00	   3.1689000e+00	   6.4457000e-01	   4.3574000e+00	   2.8223000e+01	  -6.4565000e+01	  -3.6849000e+01	
   1.2400000e-01	  -5.5357000e-02	  -1.0460000e+01	   1.5689000e+00	   2.1446000e+00	   4.0574000e+00	   3.6223000e+01	  -3.6565000e+01	  -1.8849000e+01	
   1.2600000e-01	   1.1446000e+00	  -9.3596000e+00	   1.2689000e+00	   1.7446000e+00	   4.5574000e+00	   4.0223000e+01	  -2.6565000e+01	  -1.0849000e+01	
   1.2800000e-01	   2.9446000e+00	  -6.0596000e+00	   2.9689000e+00	   3.3446000e+00	   6.1574000e+00	   3.6223000e+01	  -4.4565000e+01	  -2.8849000e+01	
   1.3000000e-01	   8.4464000e-01	  -6.8596000e+00	   3.0689000e+00	   3.5446000e+00	   6.4574000e+00	   3.0223000e+01	  -2.2565000e+01	  -1.4849000e+01	
   1.3200000e-01	  -2.3554000e+00	  -7.2596000e+00	   3.2689000e+00	   5.0446000e+00	   5.7574000e+00	   2.6223000e+01	  -2.8565000e+01	  -1.2849000e+01	
   1.3400000e-01	  -2.3554000e+00	  -7.0596000e+00	   3.0689000e+00	   5.2446000e+00	   4.5574000e+00	   2.0223000e+01	  -2.4565000e+01	  -8.8493000e+00	
   1.3600000e-01	  -1.4554000e+00	  -7.4596000e+00	   3.2689000e+00	   5.8446000e+00	   4.7574000e+00	   3.2223000e+01	  -1.4565000e+01	  -8.8493000e+00	
   1.3800000e-01	  -3.1554000e+00	  -6.8596000e+00	   1.5689000e+00	   2.4446000e+00	   3.0574000e+00	   1.8223000e+01	  -6.5650000e+00	   3.1507000e+00	
   1.4000000e-01	  -1.3554000e+00	  -2.9596000e+00	   2.6689000e+00	   4.2446000e+00	   3.2574000e+00	   1.4223000e+01	  -1.8565000e+01	  -1.2849000e+01	
   1.4200000e-01	  -2.0554000e+00	  -1.6596000e+00	   1.1689000e+00	   2.0446000e+00	   1.7574000e+00	   1.6223000e+01	   1.4350000e+00	   7.1507000e+00	
   1.4400000e-01	  -1.8554000e+00	  -5.5961000e-01	   9.6893000e-01	   2.5446000e+00	   6.5743000e-01	   1.6223000e+01	  -6.5650000e+00	   1.1507000e+00	
   1.4600000e-01	  -8.5536000e-01	  -1.2596000e+00	   1.5689000e+00	   3.6446000e+00	   1.5743000e-01	   1.6223000e+01	  -5.6500000e-01	   1.1507000e+00	
   1.4800000e-01	  -2.0554000e+00	  -1.4596000e+00	  -3.3107000e-01	   2.5446000e+00	  -4.4257000e-01	   8.2229000e+00	   1.1435000e+01	   2.5151000e+01	
   1.5000000e-01	  -1.3554000e+00	  -8.5961000e-01	   6.6893000e-01	   1.8446000e+00	   2.5743000e-01	   1.2223000e+01	   5.4350000e+00	   5.1507000e+00	
   1.5200000e-01	  -1.3554000e+00	  -3.5961000e-01	  -1.3107000e-01	   4.2446000e+00	  -6.4257000e-01	   1.4223000e+01	   1.3435000e+01	   1.3151000e+01	
   1.5400000e-01	  -2.5536000e-01	   1.1404000e+00	  -3.0311000e+00	   5.9446000e+00	  -9.4257000e-01	   2.6223000e+01	   2.3435000e+01	   2.3151000e+01	
   1.5600000e-01	   4.4464000e-01	   2.7404000e+00	  -4.9311000e+00	   4.5446000e+00	  -2.0426000e+00	   2.2229000e+00	   9.4350000e+00	  -8.4929000e-01	
   1.5800000e-01	   1.2446000e+00	   4.7404000e+00	  -4.7311000e+00	   4.5446000e+00	  -3.8426000e+00	  -1.3777000e+01	   1.4350000e+00	   7.1507000e+00	
   1.6000000e-01	   1.2446000e+00	   5.1404000e+00	  -4.6311000e+00	   5.4446000e+00	  -3.9426000e+00	  -1.1777000e+01	   1.3435000e+01	   2.3151000e+01	
   1.6200000e-01	  -1.5536000e-01	   5.2404000e+00	  -5.1311000e+00	   3.1446000e+00	  -4.0426000e+00	  -1.7777000e+01	   1.7435000e+01	   4.5151000e+01	
   1.6400000e-01	  -1.5536000e-01	   4.3404000e+00	  -3.1311000e+00	   2.9446000e+00	  -3.8426000e+00	  -1.7777000e+01	   3.3435000e+01	   3.7151000e+01	
   1.6600000e-01	  -1.8554000e+00	   1.1404000e+00	  -4.3311000e+00	   5.4446000e+00	  -1.3426000e+00	  -3.7771000e+00	   4.3435000e+01	   5.1151000e+01	
   1.6800000e-01	  -9.5536000e-01	   1.2404000e+00	  -4.3311000e+00	   8.7446000e+00	  -5.4257000e-01	  -2.5777000e+01	   3.5435000e+01	   3.9151000e+01	
   1.7000000e-01	   6.4464000e-01	   5.0404000e+00	  -7.7311000e+00	   9.7446000e+00	  -4.4257000e-01	  -2.7777000e+01	   3.7435000e+01	   4.3151000e+01	
   1.7200000e-01	   7.1446000e+00	   1.1640000e+01	  -9.4311000e+00	   9.8446000e+00	   2.2574000e+00	  -2.1777000e+01	   5.1435000e+01	   5.3151000e+01	
   1.7400000e-01	   1.4945000e+01	   1.8240000e+01	  -1.2631000e+01	   7.5446000e+00	   9.5743000e-01	  -2.7777000e+01	   5.1435000e+01	   3.5151000e+01	
   1.7600000e-01	   1.2845000e+01	   1.8440000e+01	  -1.6931000e+01	   7.4446000e+00	  -5.2426000e+00	  -1.3777000e+01	   5.7435000e+01	   4.7151000e+01	
   1.7800000e-01	   3.3446000e+00	   1.1540000e+01	  -1.7031000e+01	   6.1446000e+00	  -1.3243000e+01	  -1.9777000e+01	   5.5435000e+01	   5.5151000e+01	
   1.8000000e-01	  -1.3255000e+01	  -3.2596000e+00	  -8.4311000e+00	   3.1446000e+00	  -1.8543000e+01	  -3.1777000e+01	   5.3435000e+01	   7.1151000e+01	
   1.8200000e-01	  -2.0055000e+01	  -9.2596000e+00	  -1.0311000e+00	   3.4457000e-01	  -1.4543000e+01	  -3.1777000e+01	   4.5435000e+01	   4.9151000e+01	
   1.8400000e-01	  -1.6155000e+01	  -5.7596000e+00	  -2.1311000e+00	   1.1446000e+00	  -1.0243000e+01	  -4.3777000e+01	   3.5435000e+01	   4.7151000e+01	
   1.8600000e-01	  -8.0554000e+00	   2.4039000e-01	  -1.7311000e+00	   3.8446000e+00	  -6.2426000e+00	  -3.7777000e+01	   5.7435000e+01	   4.9151000e+01	
   1.8800000e-01	  -8.0554000e+00	   2.5404000e+00	  -3.8311000e+00	   3.4446000e+00	  -5.2426000e+00	  -3.1777000e+01	   5.5435000e+01	   5.7151000e+01	
   1.9000000e-01	  -8.7554000e+00	   5.4039000e-01	  -3.0311000e+00	   4.9446000e+00	  -4.3426000e+00	  -3.5777000e+01	   4.7435000e+01	   5.1151000e+01	
   1.9200000e-01	  -8.6554000e+00	  -2.5961000e-01	  -3.6311000e+00	   3.5446000e+00	  -3.8426000e+00	  -3.3777000e+01	   5.3435000e+01	   6.1151000e+01	
   1.9400000e-01	  -8.7554000e+00	   1.6404000e+00	  -2.6311000e+00	   3.3446000e+00	  -3.6426000e+00	  -4.7777000e+01	   3.3435000e+01	   4.3151000e+01	
   1.9600000e-01	  -7.2554000e+00	   2.8404000e+00	  -1.2311000e+00	   3.2446000e+00	  -1.3426000e+00	  -1.9777000e+01	   4.7435000e+01	   2.9151000e+01	
   1.9800000e-01	  -7.4554000e+00	  -2.0596000e+00	  -2.6311000e+00	  -5.5429000e-02	  -1.8426000e+00	  -1.9777000e+01	   4.9435000e+01	   3.9151000e+01	
   2.0000000e-01	  -5.2554000e+00	  -1.7596000e+00	  -2.4311000e+00	  -7.5543000e-01	  -1.9426000e+00	  -1.7777000e+01	   4.3435000e+01	   3.9151000e+01	
   2.0200000e-01	  -3.0554000e+00	  -2.5961000e-01	  -1.8311000e+00	  -4.5543000e-01	  -1.7426000e+00	  -1.3777000e+01	   2.9435000e+01	   3.7151000e+01	
   2.0400000e-01	  -3.2554000e+00	   9.4039000e-01	  -2.4311000e+00	   3.4457000e-01	  -1.6426000e+00	  -1.9777000e+01	   2.3435000e+01	   2.3151000e+01	
   2.0600000e-01	  -3.9554000e+00	  -6.5961000e-01	  -2.0311000e+00	   1.9446000e+00	  -1.3426000e+00	  -1.9777000e+01	  -1.0565000e+01	   7.1507000e+00	
   2.0800000e-01	  -5.8554000e+00	  -3.7596000e+00	  -9.3107000e-01	   2.4446000e+00	   6.5743000e-01	   1.0223000e+01	   1.7435000e+01	   5.5151000e+01	
   2.1000000e-01	  -3.3554000e+00	  -3.9596000e+00	   6.6893000e-01	   2.0446000e+00	   2.6574000e+00	   2.2229000e+00	  -6.5650000e+00	   2.5151000e+01	
   2.1200000e-01	  -1.5554000e+00	  -4.9596000e+00	   2.7689000e+00	   4.1446000e+00	   6.7574000e+00	   1.2223000e+01	  -1.2565000e+01	   1.5151000e+01	
   2.1400000e-01	  -5.5357000e-02	  -7.7596000e+00	   4.6689000e+00	   1.3446000e+00	   7.9574000e+00	   4.2229000e+00	  -3.2565000e+01	  -8.8493000e+00	
   2.1600000e-01	   3.2446000e+00	  -5.0596000e+00	   6.4689000e+00	   1.0446000e+00	   9.2574000e+00	   3.4223000e+01	  -3.4565000e+01	  -3.8849000e+01	
   2.1800000e-01	   2.8446000e+00	  -6.8596000e+00	   5.1689000e+00	   1.1446000e+00	   8.1574000e+00	   5.0223000e+01	  -3.6565000e+01	  -2.8849000e+01	
   2.2000000e-01	   7.9446000e+00	  -4.8596000e+00	   6.0689000e+00	   2.4457000e-01	   7.5574000e+00	   6.0223000e+01	  -5.2565000e+01	  -5.6849000e+01	
   2.2200000e-01	   7.2446000e+00	  -6.8596000e+00	   2.2689000e+00	  -2.3554000e+00	   4.4574000e+00	   3.6223000e+01	  -7.0565000e+01	  -5.8849000e+01	
   2.2400000e-01	   1.0545000e+01	  -3.1596000e+00	   4.9689000e+00	  -9.5543000e-01	   6.0574000e+00	   5.0223000e+01	  -7.2565000e+01	  -6.6849000e+01	
   2.2600000e-01	   1.0945000e+01	  -1.9596000e+00	   6.7689000e+00	   9.4457000e-01	   6.4574000e+00	   5.4223000e+01	  -7.2565000e+01	  -8.2849000e+01	
   2.2800000e-01	   1.0045000e+01	  -3.3596000e+00	   6.1689000e+00	  -8.5543000e-01	   5.9574000e+00	   5.2223000e+01	  -6.8565000e+01	  -7.6849000e+01	
   2.3000000e-01	   9.4446000e+00	  -3.5596000e+00	   6.5689000e+00	  -3.1554000e+00	   4.9574000e+00	   3.8223000e+01	  -9.8565000e+01	  -9.6849000e+01	
   2.3200000e-01	   8.8446000e+00	  -4.8596000e+00	   5.7689000e+00	  -5.5554000e+00	   6.2574000e+00	   7.2223000e+01	  -4.4565000e+01	  -3.6849000e+01	
   2.3400000e-01	   1.1045000e+01	  -3.1596000e+00	   4.6689000e+00	  -4.2554000e+00	   4.1574000e+00	   2.0223000e+01	  -8.8565000e+01	  -1.0285000e+02	
   2.3600000e-01	   9.6446000e+00	  -3.4596000e+00	   3.6689000e+00	  -1.9554000e+00	   5.1574000e+00	   3.6223000e+01	  -7.4565000e+01	  -9.6849000e+01	
   2.3800000e-01	   1.1445000e+01	  -1.8596000e+00	   3.9689000e+00	  -1.2554000e+00	   6.3574000e+00	   2.8223000e+01	  -6.2565000e+01	  -8.0849000e+01	
   2.4000000e-01	   1.0845000e+01	  -2.1596000e+00	   6.5689000e+00	  -6.5543000e-01	   8.1574000e+00	   3.2223000e+01	  -5.4565000e+01	  -7.2849000e+01	
   2.4200000e-01	   7.9446000e+00	  -3.3596000e+00	   6.4689000e+00	  -3.5554000e+00	   8.2574000e+00	   1.8223000e+01	  -5.6565000e+01	  -6.2849000e+01	
   2.4400000e-01	   7.4446000e+00	  -3.7596000e+00	   6.3689000e+00	  -3.6554000e+00	   8.2574000e+00	   2.6223000e+01	  -6.4565000e+01	  -7.0849000e+01	
   2.4600000e-01	   5.7446000e+00	  -1.5596000e+00	   5.7689000e+00	  -4.0554000e+00	   6.7574000e+00	   3.2223000e+01	  -4.8565000e+01	  -4.8849000e+01	
   2.4800000e-01	   8.4446000e+00	  -4.5961000e-01	   5.8689000e+00	  -4.6554000e+00	   5.6574000e+00	   1.6223000e+01	  -5.6565000e+01	  -5.6849000e+01	
   2.5000000e-01	   9.3446000e+00	  -1.5596000e+00	   5.9689000e+00	  -3.8554000e+00	   7.1574000e+00	   4.0223000e+01	  -1.6565000e+01	  -3.8849000e+01	
   2.5200000e-01	   9.2446000e+00	  -3.5596000e+00	   5.5689000e+00	  -1.4554000e+00	   5.2574000e+00	   1.0223000e+01	  -4.6565000e+01	  -7.0849000e+01	
   2.5400000e-01	   4.7446000e+00	  -3.6596000e+00	   4.1689000e+00	  -1.0554000e+00	   4.5574000e+00	   1.6223000e+01	  -3.0565000e+01	  -4.4849000e+01	
   2.5600000e-01	   1.9446000e+00	  -2.3596000e+00	   2.8689000e+00	  -2.9554000e+00	   4.7574000e+00	   1.6223000e+01	  -2.8565000e+01	  -2.8849000e+01	
   2.5800000e-01	   1.0446000e+00	  -3.4596000e+00	   3.3689000e+00	  -2.7554000e+00	   4.7574000e+00	   1.2223000e+01	  -3.8565000e+01	  -3.2849000e+01	
   2.6000000e-01	   1.0446000e+00	  -4.5596000e+00	   2.3689000e+00	  -6.5543000e-01	   2.4574000e+00	   1.8223000e+01	  -3.4565000e+01	  -4.0849000e+01	
   2.6200000e-01	   9.4464000e-01	  -2.2596000e+00	   6.8929000e-02	  -2.5554000e+00	   1.6574000e+00	   1.4223000e+01	  -2.6565000e+01	  -2.8849000e+01	
   2.6400000e-01	   1.9446000e+00	  -5.5961000e-01	   3.3689000e+00	  -1.4554000e+00	   3.6574000e+00	   6.2229000e+00	  -2.6565000e+01	  -2.4849000e+01	
   2.6600000e-01	   6.4464000e-01	  -1.8596000e+00	   4.8689000e+00	  -9.5543000e-01	   5.1574000e+00	  -1.7771000e+00	  -1.8565000e+01	  -2.4849000e+01	
   2.6800000e-01	   6.4464000e-01	  -3.5596000e+00	   6.0689000e+00	  -5.5543000e-01	   5.4574000e+00	   2.2286000e-01	  -1.4565000e+01	  -1.8849000e+01	
   2.7000000e-01	  -4.5536000e-01	  -4.4596000e+00	   3.0689000e+00	   1.0446000e+00	   3.6574000e+00	  -1.1777000e+01	  -4.0565000e+01	  -3.4849000e+01	
   2.7200000e-01	  -5.5357000e-02	  -1.7596000e+00	   2.6893000e-01	   2.4457000e-01	   3.1574000e+00	   8.2229000e+00	  -1.2565000e+01	  -1.0849000e+01	
   2.7400000e-01	   2.4446000e+00	   2.3404000e+00	  -1.3107000e-01	   9.4457000e-01	   3.5743000e-01	  -1.5777000e+01	  -3.4565000e+01	  -4.2849000e+01	
   2.7600000e-01	   1.3446000e+00	   2.3404000e+00	  -9.3107000e-01	   4.4457000e-01	  -3.4257000e-01	  -5.7771000e+00	  -2.2565000e+01	  -3.0849000e+01	
   2.7800000e-01	   1.3446000e+00	   1.2404000e+00	  -6.3107000e-01	   1.9446000e+00	  -1.4426000e+00	   6.2229000e+00	  -1.4565000e+01	  -2.2849000e+01	
   2.8000000e-01	   1.4464000e-01	  -8.5961000e-01	  -1.4311000e+00	   3.2446000e+00	  -9.4257000e-01	   8.2229000e+00	  -6.5650000e+00	  -1.6849000e+01	
   2.8200000e-01	   4.4643000e-02	  -2.0596000e+00	   2.6893000e-01	  -3.5543000e-01	  -4.2571000e-02	   2.2229000e+00	  -1.4565000e+01	  -2.4849000e+01	
   2.8400000e-01	  -1.9554000e+00	  -5.5961000e-01	  -3.1071000e-02	  -2.5554000e+00	  -9.4257000e-01	  -2.1777000e+01	  -3.0565000e+01	  -1.6849000e+01	
   2.8600000e-01	  -1.9554000e+00	   2.4039000e-01	   1.5689000e+00	  -1.4554000e+00	  -4.4257000e-01	  -1.1777000e+01	  -1.2565000e+01	   1.3151000e+01	
   2.8800000e-01	  -1.7554000e+00	   3.4039000e-01	   2.6689000e+00	   5.4457000e-01	   8.5743000e-01	   4.2229000e+00	  -5.6500000e-01	   1.1151000e+01	
   2.9000000e-01	  -3.5536000e-01	   1.2404000e+00	   4.6689000e+00	  -1.9554000e+00	   2.5743000e-01	  -3.7771000e+00	  -1.0565000e+01	  -1.6849000e+01	
   2.9200000e-01	   4.4643000e-02	  -4.5961000e-01	   3.2689000e+00	  -3.6554000e+00	  -3.4257000e-01	  -7.7771000e+00	  -1.4565000e+01	  -6.8493000e+00	
   2.9400000e-01	   1.8446000e+00	   3.4039000e-01	   5.6893000e-01	  -2.5554000e+00	  -2.4257000e-01	  -1.1777000e+01	  -2.0565000e+01	  -1.4849000e+01	
   2.9600000e-01	   4.4464000e-01	  -1.7596000e+00	   7.6893000e-01	  -8.5543000e-01	   1.8574000e+00	   1.4223000e+01	  -4.5650000e+00	  -1.8849000e+01	
   2.9800000e-01	   1.4464000e-01	  -5.9607000e-02	  -3.3107000e-01	  -8.5543000e-01	   3.5743000e-01	  -7.7771000e+00	  -2.6565000e+01	  -4.0849000e+01	
   3.0000000e-01	  -1.8554000e+00	  -1.0596000e+00	  -9.3107000e-01	  -1.1554000e+00	  -2.4257000e-01	   2.2286000e-01	  -2.4565000e+01	  -3.8849000e+01	
   3.0200000e-01	  -1.9554000e+00	  -1.7596000e+00	  -1.5311000e+00	  -1.3554000e+00	  -2.4257000e-01	   2.2229000e+00	   1.4350000e+00	  -1.2849000e+01	
   3.0400000e-01	   3.4464000e-01	   7.4039000e-01	  -7.3107000e-01	  -4.5543000e-01	  -2.4257000e-01	  -7.7771000e+00	  -2.0565000e+01	  -2.4849000e+01	
   3.0600000e-01	  -8.5536000e-01	   1.8404000e+00	  -8.3107000e-01	  -1.3554000e+00	  -1.3426000e+00	  -2.1777000e+01	  -3.2565000e+01	  -3.0849000e+01	
   3.0800000e-01	  -2.4554000e+00	  -2.5961000e-01	  -1.2311000e+00	  -8.5543000e-01	  -1.4426000e+00	  -9.7771000e+00	  -2.0565000e+01	  -2.4849000e+01	
   3.1000000e-01	  -4.5536000e-01	   1.4039000e-01	   2.0689000e+00	  -1.6554000e+00	  -9.4257000e-01	   2.2286000e-01	  -2.5650000e+00	  -4.8493000e+00	
   3.1200000e-01	   2.0446000e+00	  -9.5961000e-01	   1.5689000e+00	   3.4457000e-01	   4.5743000e-01	   1.8223000e+01	   9.4350000e+00	  -1.0849000e+01	
   3.1400000e-01	   2.2446000e+00	  -8.5961000e-01	   1.4689000e+00	  -9.5543000e-01	   6.5743000e-01	  -7.7771000e+00	  -8.5650000e+00	  -1.6849000e+01	
   3.1600000e-01	   5.4464000e-01	  -1.0596000e+00	   4.6893000e-01	  -3.0554000e+00	   9.5743000e-01	  -1.7777000e+01	  -2.2565000e+01	  -2.2849000e+01	
   3.1800000e-01	   2.4464000e-01	  -1.7596000e+00	   1.2689000e+00	  -2.0554000e+00	   1.6574000e+00	   2.2286000e-01	  -8.5650000e+00	  -2.4849000e+01	
   3.2000000e-01	  -7.5536000e-01	  -2.5596000e+00	  -3.3107000e-01	  -4.5543000e-01	   2.5743000e-01	  -1.7771000e+00	  -1.4565000e+01	  -1.8849000e+01	
   3.2200000e-01	  -1.7554000e+00	  -1.9596000e+00	  -7.3107000e-01	  -2.5543000e-01	   3.5743000e-01	   1.0223000e+01	  -8.5650000e+00	   3.1507000e+00	
   3.2400000e-01	   1.2446000e+00	   4.0393000e-02	  -6.3107000e-01	  -1.6554000e+00	  -2.0426000e+00	  -7.7771000e+00	  -3.0565000e+01	  -1.4849000e+01	
   3.2600000e-01	   7.4464000e-01	   4.0393000e-02	  -1.3107000e-01	  -1.4554000e+00	  -1.6426000e+00	   1.2223000e+01	  -4.5650000e+00	   3.1507000e+00	
   3.2800000e-01	   2.4464000e-01	  -1.4596000e+00	   1.7689000e+00	   2.4457000e-01	  -2.2426000e+00	  -1.7771000e+00	  -2.2565000e+01	  -1.0849000e+01	
   3.3000000e-01	  -7.5536000e-01	  -7.5961000e-01	   1.7689000e+00	   6.4457000e-01	   5.7429000e-02	   8.2229000e+00	  -4.5650000e+00	  -6.8493000e+00	
   3.3200000e-01	  -2.0554000e+00	  -4.5961000e-01	   1.2689000e+00	   1.2446000e+00	   5.7429000e-02	  -9.7771000e+00	  -1.2565000e+01	  -1.4849000e+01	
   3.3400000e-01	  -1.0554000e+00	  -1.5961000e-01	   9.6893000e-01	   3.0446000e+00	   1.3574000e+00	   6.2229000e+00	   1.4350000e+00	   9.1507000e+00	
   3.3600000e-01	  -4.0554000e+00	   1.4404000e+00	  -3.1071000e-02	   3.4446000e+00	   2.3574000e+00	   8.2229000e+00	   9.4350000e+00	   1.9151000e+01	
   3.3800000e-01	  -4.4554000e+00	   1.5404000e+00	  -1.6311000e+00	   3.7446000e+00	   1.8574000e+00	  -5.7771000e+00	   1.3435000e+01	   1.5151000e+01	
   3.4000000e-01	  -4.4554000e+00	   7.4039000e-01	  -3.2311000e+00	   2.3446000e+00	   9.5743000e-01	   1.4223000e+01	   2.5435000e+01	   2.7151000e+01	
   3.4200000e-01	  -2.4554000e+00	   3.5404000e+00	  -2.1311000e+00	   1.1446000e+00	  -1.1426000e+00	   3.4223000e+01	   4.3435000e+01	   3.1151000e+01	
   3.4400000e-01	  -2.8554000e+00	   5.5404000e+00	  -4.5311000e+00	   1.7446000e+00	  -3.2426000e+00	   3.2223000e+01	   4.1435000e+01	   3.5151000e+01	
   3.4600000e-01	  -1.5554000e+00	   7.3404000e+00	  -5.7311000e+00	   8.4457000e-01	  -5.5426000e+00	   2.2229000e+00	   2.9435000e+01	   2.5151000e+01	
   3.4800000e-01	  -3.4554000e+00	   7.6404000e+00	  -6.9311000e+00	   1.6446000e+00	  -6.3426000e+00	   1.6223000e+01	   4.5435000e+01	   3.3151000e+01	
   3.5000000e-01	  -5.2554000e+00	   6.7404000e+00	  -5.9311000e+00	  -1.8554000e+00	  -6.0426000e+00	   1.0223000e+01	   3.9435000e+01	   5.1151000e+01	
   3.5200000e-01	  -3.7554000e+00	   6.6404000e+00	  -4.4311000e+00	  -1.1554000e+00	  -2.8426000e+00	   8.2229000e+00	   4.9435000e+01	   4.9151000e+01	
   3.5400000e-01	  -2.5554000e+00	   2.9404000e+00	  -4.3311000e+00	   2.4457000e-01	  -2.7426000e+00	  -1.1777000e+01	   1.9435000e+01	   4.1151000e+01	
   3.5600000e-01	  -2.2554000e+00	   2.5404000e+00	  -3.0311000e+00	  -5.5429000e-02	  -1.3426000e+00	  -2.7777000e+01	   9.4350000e+00	   1.7151000e+01	
   3.5800000e-01	  -1.8554000e+00	   9.4039000e-01	  -2.4311000e+00	  -1.5543000e-01	  -8.4257000e-01	  -3.7777000e+01	  -1.0565000e+01	  -8.4929000e-01	
   3.6000000e-01	  -1.3554000e+00	  -7.5961000e-01	  -9.3107000e-01	   1.6446000e+00	  -1.3426000e+00	  -3.3777000e+01	   1.4350000e+00	  -8.8493000e+00	
   3.6200000e-01	  -9.5536000e-01	  -4.5961000e-01	  -4.3107000e-01	   5.4457000e-01	  -3.4426000e+00	  -4.7777000e+01	  -1.2565000e+01	  -3.2849000e+01	
   3.6400000e-01	   4.4643000e-02	   1.6404000e+00	   1.2689000e+00	   3.4457000e-01	  -3.2426000e+00	  -2.9777000e+01	  -4.5650000e+00	  -6.8493000e+00	
   3.6600000e-01	   1.4464000e-01	   5.4039000e-01	   5.6893000e-01	   1.4457000e-01	  -2.0426000e+00	  -3.3777000e+01	  -1.8565000e+01	  -2.0849000e+01	
   3.6800000e-01	  -5.0554000e+00	   1.0404000e+00	   1.3689000e+00	   2.4457000e-01	  -3.4257000e-01	  -1.7777000e+01	  -1.2565000e+01	  -4.8493000e+00	
   3.7000000e-01	  -6.0554000e+00	  -3.2596000e+00	   1.1689000e+00	   4.4571000e-02	  -2.4257000e-01	  -2.7777000e+01	  -3.6565000e+01	  -3.6849000e+01	
   3.7200000e-01	  -6.4554000e+00	  -4.8596000e+00	   1.3689000e+00	  -1.5554000e+00	  -4.2571000e-02	  -1.7777000e+01	  -3.2565000e+01	  -4.0849000e+01	
   3.7400000e-01	  -5.7554000e+00	  -3.5596000e+00	   4.3689000e+00	  -1.8554000e+00	   4.5743000e-01	  -1.3777000e+01	  -2.6565000e+01	  -2.2849000e+01	
   3.7600000e-01	  -5.6554000e+00	  -3.4596000e+00	   5.3689000e+00	  -8.5543000e-01	   2.2574000e+00	  -3.7771000e+00	  -1.8565000e+01	  -1.8849000e+01	
   3.7800000e-01	  -6.5554000e+00	  -5.7596000e+00	   5.0689000e+00	   2.4457000e-01	   3.2574000e+00	  -3.7771000e+00	  -2.8565000e+01	  -4.0849000e+01	
   3.8000000e-01	  -5.6554000e+00	  -4.7596000e+00	   3.6689000e+00	  -2.3554000e+00	   2.0574000e+00	  -1.3777000e+01	  -4.0565000e+01	  -5.2849000e+01	
   3.8200000e-01	  -1.7554000e+00	  -3.1596000e+00	   3.0689000e+00	  -1.4554000e+00	   1.2574000e+00	  -9.7771000e+00	  -3.8565000e+01	  -4.8849000e+01	
   3.8400000e-01	  -2.4554000e+00	  -1.7596000e+00	   2.4689000e+00	   1.0446000e+00	   2.0574000e+00	  -9.7771000e+00	  -3.8565000e+01	  -4.2849000e+01	
   3.8600000e-01	  -1.3554000e+00	  -1.1596000e+00	   4.8689000e+00	   4.2446000e+00	   4.5574000e+00	   2.2229000e+00	  -1.4565000e+01	  -3.4849000e+01	
   3.8800000e-01	  -2.8554000e+00	  -3.3596000e+00	   4.0689000e+00	  -1.5543000e-01	   3.1574000e+00	   2.2229000e+00	  -1.6565000e+01	  -1.4849000e+01	
   3.9000000e-01	  -7.5536000e-01	   4.0393000e-02	   2.8689000e+00	  -2.0554000e+00	   1.7574000e+00	  -9.7771000e+00	  -2.8565000e+01	  -2.6849000e+01	
   3.9200000e-01	  -2.3554000e+00	  -2.4596000e+00	   2.8689000e+00	  -3.5554000e+00	   3.2574000e+00	  -7.7771000e+00	  -2.8565000e+01	  -3.6849000e+01	
   3.9400000e-01	  -2.2554000e+00	  -6.0596000e+00	   2.8689000e+00	  -1.4554000e+00	   3.6574000e+00	  -1.1777000e+01	  -3.0565000e+01	  -3.6849000e+01	
   3.9600000e-01	   4.4643000e-02	  -4.1596000e+00	   3.6689000e+00	   1.4446000e+00	   5.8574000e+00	  -1.7771000e+00	  -2.0565000e+01	  -2.8849000e+01	
   3.9800000e-01	   1.9446000e+00	  -5.9607000e-02	   1.5689000e+00	   4.1446000e+00	   6.8574000e+00	  -3.7771000e+00	  -8.5650000e+00	  -1.8849000e+01	
   4.0000000e-01	   6.5446000e+00	   2.5404000e+00	  -3.3107000e-01	   6.5446000e+00	   7.2574000e+00	  -1.1777000e+01	  -2.2565000e+01	  -2.2849000e+01	
   4.0200000e-01	   1.2845000e+01	   8.4404000e+00	  -5.6311000e+00	   6.3446000e+00	   7.2574000e+00	  -7.7771000e+00	  -1.6565000e+01	  -1.4849000e+01	
   4.0400000e-01	   1.5445000e+01	   1.3240000e+01	  -1.1931000e+01	   4.1446000e+00	   1.8574000e+00	  -7.7771000e+00	  -1.2565000e+01	  -1.2849000e+01	
   4.0600000e-01	   1.0845000e+01	   1.0040000e+01	  -1.4331000e+01	   6.4457000e-01	  -5.4426000e+00	  -2.7777000e+01	  -2.8565000e+01	  -2.4849000e+01	
   4.0800000e-01	  -6.1554000e+00	  -5.4596000e+00	  -5.1311000e+00	  -2.2554000e+00	  -8.7426000e+00	  -1.1777000e+01	  -1.4565000e+01	  -3.0849000e+01	
   4.1000000e-01	  -1.9755000e+01	  -1.7460000e+01	   4.4689000e+00	  -3.6554000e+00	  -6.8426000e+00	  -1.7771000e+00	  -3.0565000e+01	  -2.4849000e+01	
   4.1200000e-01	  -1.5355000e+01	  -1.5560000e+01	   9.5689000e+00	  -6.5543000e-01	   5.7429000e-02	   3.0223000e+01	  -4.2565000e+01	  -2.2849000e+01	
   4.1400000e-01	  -7.2554000e+00	  -1.3460000e+01	   9.8689000e+00	   1.4446000e+00	   7.0574000e+00	   6.4223000e+01	  -3.2565000e+01	  -2.8493000e+00	
   4.1600000e-01	  -6.5554000e+00	  -1.4960000e+01	   6.3689000e+00	   3.0446000e+00	   7.0574000e+00	   4.6223000e+01	  -5.2565000e+01	  -6.8493000e+00	
   4.1800000e-01	  -7.1554000e+00	  -1.3160000e+01	   7.0689000e+00	   7.1446000e+00	   4.3574000e+00	   5.4223000e+01	  -2.5650000e+00	   3.7151000e+01	
   4.2000000e-01	  -1.2155000e+01	  -6.4596000e+00	   1.6893000e-01	   8.9446000e+00	  -3.9426000e+00	   1.4223000e+01	   1.4144000e+02	   1.8915000e+02	
   4.2200000e-01	  -1.7655000e+01	   8.6404000e+00	  -9.3311000e+00	   1.2645000e+01	  -1.7443000e+01	  -9.7777000e+01	   2.9744000e+02	   3.4515000e+02	
   4.2400000e-01	  -2.6055000e+01	   2.7040000e+01	  -2.5431000e+01	   1.2445000e+01	  -3.8443000e+01	  -2.6778000e+02	   4.6543000e+02	   4.8315000e+02	
   4.2600000e-01	  -3.6455000e+01	   5.0140000e+01	  -4.4131000e+01	   6.5446000e+00	  -5.9343000e+01	  -4.5378000e+02	   6.1943000e+02	   6.2515000e+02	
   4.2800000e-01	  -4.2755000e+01	   6.8740000e+01	  -5.6931000e+01	   2.2446000e+00	  -7.4943000e+01	  -6.3378000e+02	   7.2343000e+02	   7.1715000e+02	
   4.3000000e-01	  -4.6455000e+01	   8.5340000e+01	  -6.7131000e+01	   3.4457000e-01	  -8.9443000e+01	  -7.0778000e+02	   8.2543000e+02	   7.5115000e+02	
   4.3200000e-01	  -4.3955000e+01	   1.0064000e+02	  -6.9931000e+01	  -8.4554000e+00	  -9.2743000e+01	  -6.0578000e+02	   7.6943000e+02	   5.4915000e+02	
   4.3400000e-01	  -2.1155000e+01	   1.0114000e+02	  -5.4431000e+01	  -2.2355000e+01	  -7.5943000e+01	  -3.9378000e+02	   5.1743000e+02	   2.0115000e+02	
   4.3600000e-01	   9.9446000e+00	   8.8940000e+01	  -3.2331000e+01	  -3.5355000e+01	  -4.9543000e+01	  -1.5778000e+02	   1.9344000e+02	  -1.1285000e+02	
   4.3800000e-01	   2.9445000e+01	   6.0540000e+01	  -9.9311000e+00	  -3.8255000e+01	  -2.1943000e+01	   2.0223000e+01	  -8.0565000e+01	  -3.1885000e+02	
   4.4000000e-01	   3.7745000e+01	   2.9540000e+01	   7.4689000e+00	  -3.2755000e+01	   7.5743000e-01	   1.4222000e+02	  -2.4656000e+02	  -3.8085000e+02	
   4.4200000e-01	   3.2345000e+01	   2.0404000e+00	   1.4969000e+01	  -2.0655000e+01	   1.4457000e+01	   1.8422000e+02	  -2.7656000e+02	  -3.2285000e+02	
   4.4400000e-01	   2.1745000e+01	  -1.6560000e+01	   1.8269000e+01	  -7.6554000e+00	   2.3057000e+01	   1.8822000e+02	  -2.3856000e+02	  -2.4085000e+02	
   4.4600000e-01	   1.3445000e+01	  -2.8160000e+01	   1.9969000e+01	   2.4457000e-01	   2.6157000e+01	   1.6422000e+02	  -2.3656000e+02	  -1.9685000e+02	
   4.4800000e-01	   9.1446000e+00	  -3.3060000e+01	   2.1369000e+01	   4.5446000e+00	   2.8157000e+01	   1.6022000e+02	  -2.2056000e+02	  -1.5485000e+02	
   4.5000000e-01	   6.4446000e+00	  -3.4860000e+01	   2.0069000e+01	   6.8446000e+00	   2.7157000e+01	   1.5622000e+02	  -2.1256000e+02	  -1.1885000e+02	
   4.5200000e-01	   6.3446000e+00	  -3.3060000e+01	   1.7569000e+01	   4.8446000e+00	   2.4257000e+01	   1.2422000e+02	  -2.3256000e+02	  -1.4285000e+02	
   4.5400000e-01	   7.0446000e+00	  -3.1960000e+01	   1.6669000e+01	   6.5446000e+00	   2.2557000e+01	   1.2622000e+02	  -2.2056000e+02	  -1.3485000e+02	
   4.5600000e-01	   6.2446000e+00	  -2.9160000e+01	   1.5869000e+01	   8.6446000e+00	   2.3057000e+01	   1.2422000e+02	  -1.9656000e+02	  -1.3685000e+02	
   4.5800000e-01	   5.0446000e+00	  -2.7660000e+01	   1.5369000e+01	   6.9446000e+00	   2.3057000e+01	   1.2222000e+02	  -1.7256000e+02	  -1.2685000e+02	
   4.6000000e-01	   5.2446000e+00	  -2.6660000e+01	   1.4469000e+01	   6.2446000e+00	   2.0757000e+01	   1.0622000e+02	  -1.8256000e+02	  -1.2685000e+02	
   4.6200000e-01	   3.3446000e+00	  -2.7160000e+01	   1.2369000e+01	   5.9446000e+00	   1.9457000e+01	   1.0822000e+02	  -1.5856000e+02	  -9.0849000e+01	
   4.6400000e-01	   4.4446000e+00	  -2.2860000e+01	   1.1169000e+01	   4.4446000e+00	   1.6457000e+01	   8.8223000e+01	  -1.6256000e+02	  -1.0085000e+02	
   4.6600000e-01	   3.3446000e+00	  -2.2160000e+01	   1.1869000e+01	   4.9446000e+00	   1.6257000e+01	   1.0422000e+02	  -1.4456000e+02	  -1.0085000e+02	
   4.6800000e-01	   3.9446000e+00	  -2.1860000e+01	   9.5689000e+00	   3.8446000e+00	   1.5457000e+01	   1.1222000e+02	  -1.0656000e+02	  -6.0849000e+01	
   4.7000000e-01	   3.8446000e+00	  -1.7860000e+01	   7.2689000e+00	   2.8446000e+00	   1.2757000e+01	   6.6223000e+01	  -1.3256000e+02	  -8.4849000e+01	
   4.7200000e-01	   3.1446000e+00	  -1.7560000e+01	   9.2689000e+00	   3.1446000e+00	   1.4457000e+01	   8.4223000e+01	  -9.8565000e+01	  -5.6849000e+01	
   4.7400000e-01	   2.0446000e+00	  -1.8260000e+01	   7.4689000e+00	   3.4457000e-01	   1.1157000e+01	   4.0223000e+01	  -1.2456000e+02	  -8.6849000e+01	
   4.7600000e-01	   1.0446000e+00	  -1.5160000e+01	   6.4689000e+00	   2.9446000e+00	   1.1457000e+01	   6.8223000e+01	  -9.4565000e+01	  -7.0849000e+01	
   4.7800000e-01	   8.4464000e-01	  -1.3460000e+01	   5.0689000e+00	   1.6446000e+00	   9.9574000e+00	   5.8223000e+01	  -9.0565000e+01	  -5.8849000e+01	
   4.8000000e-01	   1.3446000e+00	  -1.1760000e+01	   4.9689000e+00	  -1.2554000e+00	   9.2574000e+00	   4.6223000e+01	  -8.8565000e+01	  -4.0849000e+01	
   4.8200000e-01	   2.3446000e+00	  -1.0560000e+01	   6.3689000e+00	  -4.5543000e-01	   1.0057000e+01	   6.2223000e+01	  -4.6565000e+01	  -1.4849000e+01	
   4.8400000e-01	   4.3446000e+00	  -1.0060000e+01	   4.4689000e+00	  -3.5543000e-01	   8.6574000e+00	   4.4223000e+01	  -5.8565000e+01	  -4.6849000e+01	
   4.8600000e-01	   4.2446000e+00	  -6.6596000e+00	   3.7689000e+00	   9.4457000e-01	   6.9574000e+00	   4.4223000e+01	  -5.8565000e+01	  -4.0849000e+01	
   4.8800000e-01	   3.5446000e+00	  -4.1596000e+00	   3.3689000e+00	  -5.5543000e-01	   6.4574000e+00	   4.0223000e+01	  -5.6565000e+01	  -4.0849000e+01	
   4.9000000e-01	   3.3446000e+00	  -6.1596000e+00	   2.3689000e+00	   2.4457000e-01	   6.8574000e+00	   4.2223000e+01	  -5.0565000e+01	  -3.4849000e+01	
   4.9200000e-01	   2.9446000e+00	  -6.4596000e+00	   2.5689000e+00	   2.8446000e+00	   6.3574000e+00	   4.4223000e+01	  -3.2565000e+01	  -3.2849000e+01	
   4.9400000e-01	   4.4464000e-01	  -7.3596000e+00	   1.6689000e+00	   1.5446000e+00	   4.1574000e+00	   4.8223000e+01	  -1.8565000e+01	  -1.4849000e+01	
   4.9600000e-01	  -5.5357000e-02	  -5.9596000e+00	   1.2689000e+00	   4.4457000e-01	   2.0574000e+00	   2.8223000e+01	  -3.0565000e+01	  -1.2849000e+01	
   4.9800000e-01	  -4.5536000e-01	  -5.7596000e+00	   2.1689000e+00	   9.4457000e-01	   2.9574000e+00	   2.0223000e+01	  -3.2565000e+01	  -2.8493000e+00	
   5.0000000e-01	  -7.5536000e-01	  -5.5596000e+00	   3.5689000e+00	   1.4446000e+00	   3.0574000e+00	   1.4223000e+01	  -2.6565000e+01	  -6.8493000e+00	
   5.0200000e-01	  -3.5536000e-01	  -6.4596000e+00	   2.8689000e+00	   1.5446000e+00	   3.6574000e+00	   1.6223000e+01	  -3.0565000e+01	  -1.0849000e+01	
   5.0400000e-01	   1.5446000e+00	  -5.0596000e+00	   2.3689000e+00	   1.0446000e+00	   3.1574000e+00	   2.0223000e+01	  -1.0565000e+01	  -1.4849000e+01	
   5.0600000e-01	   2.3446000e+00	  -4.5596000e+00	   1.4689000e+00	   1.9446000e+00	   2.0574000e+00	   1.4223000e+01	  -2.0565000e+01	  -4.8493000e+00	
   5.0800000e-01	   3.2446000e+00	  -2.8596000e+00	   2.0689000e+00	   2.9446000e+00	   2.7574000e+00	   4.2229000e+00	  -1.8565000e+01	  -2.8493000e+00	
   5.1000000e-01	   1.8446000e+00	  -1.8596000e+00	   1.1689000e+00	   3.4446000e+00	   3.6574000e+00	   3.2223000e+01	   1.5435000e+01	   2.3151000e+01	
   5.1200000e-01	   5.2446000e+00	  -1.0596000e+00	   1.7689000e+00	   3.6446000e+00	   2.5574000e+00	   1.6223000e+01	  -2.5650000e+00	   9.1507000e+00	
   5.1400000e-01	   4.3446000e+00	  -1.3596000e+00	   2.6893000e-01	   1.2446000e+00	   2.1574000e+00	   1.0223000e+01	  -2.5650000e+00	   1.1151000e+01	
   5.1600000e-01	   4.7446000e+00	  -3.5961000e-01	  -2.3107000e-01	  -1.0554000e+00	  -6.4257000e-01	  -1.3777000e+01	  -1.0565000e+01	   7.1507000e+00	
   5.1800000e-01	   4.6446000e+00	   3.0404000e+00	  -4.3107000e-01	   4.4571000e-02	  -8.4257000e-01	  -3.7771000e+00	  -5.6500000e-01	   2.3151000e+01	
   5.2000000e-01	   3.8446000e+00	   1.7404000e+00	  -4.3107000e-01	   1.4457000e-01	  -2.4257000e-01	  -1.7771000e+00	   3.4350000e+00	   2.3151000e+01	
   5.2200000e-01	   2.9446000e+00	  -1.5961000e-01	  -6.3107000e-01	  -8.5543000e-01	  -1.1426000e+00	   6.2229000e+00	   2.5435000e+01	   3.1151000e+01	
   5.2400000e-01	   3.4446000e+00	   7.4039000e-01	  -1.5311000e+00	   1.1446000e+00	  -2.6426000e+00	  -1.7771000e+00	   5.4350000e+00	   1.1151000e+01	
   5.2600000e-01	   9.4464000e-01	  -1.0596000e+00	  -2.9311000e+00	   1.1446000e+00	  -2.8426000e+00	  -1.1777000e+01	   1.5435000e+01	   3.7151000e+01	
   5.2800000e-01	   4.4464000e-01	   1.6404000e+00	  -2.9311000e+00	   1.3446000e+00	  -3.1426000e+00	  -2.1777000e+01	   1.1435000e+01	   3.1151000e+01	
   5.3000000e-01	  -5.5357000e-02	   2.9404000e+00	  -3.7311000e+00	   2.9446000e+00	  -2.9426000e+00	  -3.1777000e+01	   3.4350000e+00	   9.1507000e+00	
   5.3200000e-01	  -7.5536000e-01	   3.2404000e+00	  -3.7311000e+00	   3.7446000e+00	  -3.5426000e+00	  -1.7777000e+01	   3.7435000e+01	   3.3151000e+01	
   5.3400000e-01	  -1.2554000e+00	   1.8404000e+00	  -3.8311000e+00	   5.3446000e+00	  -3.3426000e+00	  -9.7771000e+00	   4.9435000e+01	   4.5151000e+01	
   5.3600000e-01	  -1.1554000e+00	   1.9404000e+00	  -3.7311000e+00	   3.9446000e+00	  -4.3426000e+00	  -1.9777000e+01	   4.7435000e+01	   4.5151000e+01	
   5.3800000e-01	  -1.4554000e+00	   2.5404000e+00	  -2.3311000e+00	   3.9446000e+00	  -4.4426000e+00	  -1.9777000e+01	   5.3435000e+01	   6.7151000e+01	
   5.4000000e-01	  -2.3554000e+00	   5.2404000e+00	  -2.0311000e+00	   5.2446000e+00	  -4.2426000e+00	  -2.9777000e+01	   5.1435000e+01	   6.3151000e+01	
   5.4200000e-01	  -3.1554000e+00	   5.7404000e+00	  -1.0311000e+00	   3.6446000e+00	  -4.7426000e+00	  -3.3777000e+01	   3.7435000e+01	   4.3151000e+01	
   5.4400000e-01	  -6.2554000e+00	   3.5404000e+00	  -3.2311000e+00	   1.2446000e+00	  -4.6426000e+00	  -3.3777000e+01	   4.7435000e+01	   5.5151000e+01	
   5.4600000e-01	  -1.7554000e+00	   7.7404000e+00	  -2.7311000e+00	   1.7446000e+00	  -1.9426000e+00	  -1.5777000e+01	   6.3435000e+01	   6.1151000e+01	
   5.4800000e-01	  -6.5536000e-01	   9.6404000e+00	  -3.5311000e+00	   1.7446000e+00	  -3.2426000e+00	  -3.1777000e+01	   5.1435000e+01	   6.5151000e+01	
   5.5000000e-01	   6.4464000e-01	   9.9404000e+00	  -3.5311000e+00	   1.9446000e+00	  -3.6426000e+00	  -1.7777000e+01	   5.7435000e+01	   6.9151000e+01	
   5.5200000e-01	   9.4464000e-01	   8.9404000e+00	  -5.1311000e+00	   9.4457000e-01	  -6.2426000e+00	  -4.7777000e+01	   3.3435000e+01	   4.3151000e+01	
   5.5400000e-01	   2.4464000e-01	   5.3404000e+00	  -4.8311000e+00	   3.5446000e+00	  -4.7426000e+00	  -3.1777000e+01	   3.9435000e+01	   5.1151000e+01	
   5.5600000e-01	  -3.5536000e-01	   8.1404000e+00	  -4.1311000e+00	   2.4446000e+00	  -5.2426000e+00	  -3.5777000e+01	   3.5435000e+01	   3.9151000e+01	
   5.5800000e-01	   6.4464000e-01	   8.7404000e+00	  -5.6311000e+00	   2.8446000e+00	  -5.3426000e+00	  -1.1777000e+01	   5.9435000e+01	   6.9151000e+01	
   5.6000000e-01	   4.4643000e-02	   8.7404000e+00	  -5.4311000e+00	   2.3446000e+00	  -5.0426000e+00	  -1.3777000e+01	   5.7435000e+01	   6.7151000e+01	
   5.6200000e-01	   3.4464000e-01	   7.2404000e+00	  -4.0311000e+00	   1.1446000e+00	  -3.8426000e+00	  -2.5777000e+01	   3.5435000e+01	   5.9151000e+01	
   5.6400000e-01	  -9.5536000e-01	   6.1404000e+00	  -2.7311000e+00	   2.0446000e+00	  -2.9426000e+00	  -1.1777000e+01	   3.1435000e+01	   4.3151000e+01	
   5.6600000e-01	   4.4643000e-02	   3.6404000e+00	  -3.9311000e+00	   3.4457000e-01	  -2.2426000e+00	  -2.5777000e+01	   1.7435000e+01	   2.9151000e+01	
   5.6800000e-01	   3.4464000e-01	   3.1404000e+00	  -4.3311000e+00	   1.8446000e+00	   6.5743000e-01	  -9.7771000e+00	   1.7435000e+01	   3.1151000e+01	
   5.7000000e-01	   6.4464000e-01	   1.9404000e+00	  -4.7311000e+00	   2.2446000e+00	   2.0574000e+00	  -1.3777000e+01	   9.4350000e+00	   2.1151000e+01	
   5.7200000e-01	  -5.5357000e-02	  -3.5961000e-01	  -2.5311000e+00	   4.4457000e-01	   3.8574000e+00	  -1.5777000e+01	   1.4350000e+00	   2.1151000e+01	
   5.7400000e-01	  -1.9554000e+00	  -2.9596000e+00	  -2.3107000e-01	   4.4457000e-01	   3.7574000e+00	  -1.3777000e+01	  -3.2565000e+01	  -1.0849000e+01	
   5.7600000e-01	  -4.2554000e+00	  -3.6596000e+00	   2.6893000e-01	  -1.2554000e+00	   3.8574000e+00	   2.2223000e+01	  -6.5650000e+00	   1.3151000e+01	
   5.7800000e-01	  -2.4554000e+00	  -3.0596000e+00	   8.6893000e-01	  -4.8554000e+00	   1.3574000e+00	   1.0223000e+01	  -4.6565000e+01	  -3.0849000e+01	
   5.8000000e-01	   6.4464000e-01	  -4.7596000e+00	   2.4689000e+00	  -6.0554000e+00	   2.7574000e+00	   3.8223000e+01	  -4.0565000e+01	  -2.4849000e+01	
   5.8200000e-01	   3.5446000e+00	  -2.7596000e+00	   4.5689000e+00	  -5.3554000e+00	   3.8574000e+00	   4.6223000e+01	  -3.8565000e+01	  -2.4849000e+01	
   5.8400000e-01	   5.5446000e+00	  -1.3596000e+00	   5.3689000e+00	  -4.2554000e+00	   3.9574000e+00	   4.6223000e+01	  -4.6565000e+01	  -3.8849000e+01	
   5.8600000e-01	   7.2446000e+00	  -1.0596000e+00	   6.5689000e+00	  -4.2554000e+00	   5.5574000e+00	   4.6223000e+01	  -5.2565000e+01	  -4.4849000e+01	
   5.8800000e-01	   6.8446000e+00	  -3.0596000e+00	   5.0689000e+00	  -4.1554000e+00	   6.8574000e+00	   3.8223000e+01	  -6.2565000e+01	  -6.6849000e+01	
   5.9000000e-01	   7.6446000e+00	  -5.1596000e+00	   6.0689000e+00	  -3.2554000e+00	   8.8574000e+00	   5.0223000e+01	  -6.4565000e+01	  -7.8849000e+01	
   5.9200000e-01	   7.7446000e+00	  -5.0596000e+00	   6.7689000e+00	  -4.3554000e+00	   8.0574000e+00	   3.6223000e+01	  -7.8565000e+01	  -8.4849000e+01	
   5.9400000e-01	   5.9446000e+00	  -4.7596000e+00	   6.9689000e+00	  -4.7554000e+00	   7.6574000e+00	   4.2223000e+01	  -6.8565000e+01	  -8.2849000e+01	
   5.9600000e-01	   5.1446000e+00	  -6.3596000e+00	   7.9689000e+00	  -3.5554000e+00	   7.3574000e+00	   5.2223000e+01	  -5.2565000e+01	  -6.8849000e+01	
   5.9800000e-01	   5.1446000e+00	  -7.4596000e+00	   7.8689000e+00	  -1.9554000e+00	   5.6574000e+00	   2.4223000e+01	  -7.8565000e+01	  -9.4849000e+01	
   6.0000000e-01	   5.6446000e+00	  -6.4596000e+00	   9.0689000e+00	  -2.5543000e-01	   6.4574000e+00	   4.2223000e+01	  -6.4565000e+01	  -7.2849000e+01	
   6.0200000e-01	   6.2446000e+00	  -3.0596000e+00	   8.2689000e+00	  -1.9554000e+00	   5.4574000e+00	   1.8223000e+01	  -7.4565000e+01	  -8.0849000e+01	
   6.0400000e-01	   6.7446000e+00	  -2.8596000e+00	   7.5689000e+00	  -1.6554000e+00	   7.0574000e+00	   2.2223000e+01	  -6.6565000e+01	  -6.6849000e+01	
   6.0600000e-01	   7.1446000e+00	  -3.4596000e+00	   7.8689000e+00	  -1.1554000e+00	   7.7574000e+00	   5.0223000e+01	  -3.6565000e+01	  -5.6849000e+01	
   6.0800000e-01	   6.3446000e+00	  -3.0596000e+00	   4.6689000e+00	  -3.1554000e+00	   4.8574000e+00	   1.2223000e+01	  -6.4565000e+01	  -7.6849000e+01	
   6.1000000e-01	   5.7446000e+00	  -3.5961000e-01	   6.0689000e+00	  -1.7554000e+00	   6.1574000e+00	   4.0223000e+01	  -4.2565000e+01	  -4.8849000e+01	
   6.1200000e-01	   4.6446000e+00	  -2.3596000e+00	   4.3689000e+00	  -1.4554000e+00	   4.1574000e+00	   8.2229000e+00	  -6.0565000e+01	  -6.2849000e+01	
   6.1400000e-01	   4.7446000e+00	  -3.0596000e+00	   4.8689000e+00	   1.4446000e+00	   5.7574000e+00	   3.2223000e+01	  -4.0565000e+01	  -4.4849000e+01	
   6.1600000e-01	   5.0446000e+00	  -3.5596000e+00	   3.6689000e+00	  -4.5543000e-01	   3.8574000e+00	   1.0223000e+01	  -4.6565000e+01	  -5.6849000e+01	
   6.1800000e-01	   2.8446000e+00	  -5.2596000e+00	   3.9689000e+00	  -9.5543000e-01	   4.8574000e+00	   3.4223000e+01	  -1.4565000e+01	  -2.8849000e+01	
   6.2000000e-01	   4.1446000e+00	  -4.7596000e+00	   4.8689000e+00	  -2.4554000e+00	   4.3574000e+00	   2.2286000e-01	  -4.0565000e+01	  -4.2849000e+01	
   6.2200000e-01	   2.9446000e+00	  -3.4596000e+00	   4.5689000e+00	  -1.5554000e+00	   4.3574000e+00	   6.2229000e+00	  -3.8565000e+01	  -4.4849000e+01	
   6.2400000e-01	   3.8446000e+00	  -3.0596000e+00	   4.0689000e+00	   1.8446000e+00	   5.7574000e+00	   2.8223000e+01	  -2.0565000e+01	  -2.4849000e+01	
   6.2600000e-01	   4.2446000e+00	  -3.0596000e+00	   4.7689000e+00	   5.3446000e+00	   5.9574000e+00	   8.2229000e+00	  -3.8565000e+01	  -4.0849000e+01	
   6.2800000e-01	   4.2446000e+00	  -5.5961000e-01	   3.2689000e+00	   7.5446000e+00	   7.3574000e+00	   1.0223000e+01	  -2.8565000e+01	  -3.2849000e+01	
   6.3000000e-01	   6.6446000e+00	   1.4404000e+00	  -1.0311000e+00	   6.5446000e+00	   1.0057000e+01	   1.2223000e+01	  -1.2565000e+01	  -2.0849000e+01	
   6.3200000e-01	   1.4845000e+01	   1.0640000e+01	  -5.1311000e+00	   6.6446000e+00	   7.9574000e+00	   2.2229000e+00	  -1.4565000e+01	  -1.0849000e+01	
   6.3400000e-01	   1.4845000e+01	   1.2040000e+01	  -8.8311000e+00	   6.6446000e+00	   1.6574000e+00	   8.2229000e+00	  -1.6565000e+01	  -2.8849000e+01	
   6.3600000e-01	   7.3446000e+00	   6.8404000e+00	  -9.4311000e+00	   5.4446000e+00	  -3.8426000e+00	   2.4223000e+01	   5.4350000e+00	  -1.0849000e+01	
   6.3800000e-01	  -9.9554000e+00	  -8.9596000e+00	  -3.1071000e-02	   2.5446000e+00	  -7.9426000e+00	   2.2286000e-01	  -1.6565000e+01	  -2.4849000e+01	
   6.4000000e-01	  -1.6655000e+01	  -1.5760000e+01	   8.7689000e+00	  -6.5543000e-01	  -4.1426000e+00	  -3.7771000e+00	  -3.2565000e+01	  -2.6849000e+01	
   6.4200000e-01	  -1.1855000e+01	  -1.0760000e+01	   9.6689000e+00	   1.4457000e-01	   1.5574000e+00	   1.6223000e+01	  -2.5650000e+00	   1.1151000e+01	
   6.4400000e-01	  -3.0554000e+00	  -6.6596000e+00	   6.5689000e+00	   2.4457000e-01	   2.9574000e+00	   2.2286000e-01	  -1.6565000e+01	  -8.8493000e+00	
   6.4600000e-01	  -1.3554000e+00	  -7.1596000e+00	   5.6689000e+00	   1.1446000e+00	   2.8574000e+00	   4.2229000e+00	  -1.0565000e+01	  -4.8493000e+00	
   6.4800000e-01	  -1.0554000e+00	  -5.4596000e+00	   5.1689000e+00	   2.8446000e+00	   1.8574000e+00	   1.6223000e+01	  -2.5650000e+00	   3.1507000e+00	
   6.5000000e-01	  -2.8554000e+00	  -4.3596000e+00	   5.9689000e+00	   3.6446000e+00	   1.9574000e+00	   1.2223000e+01	  -1.2565000e+01	  -6.8493000e+00	
   6.5200000e-01	  -2.5554000e+00	  -5.0596000e+00	   6.0689000e+00	   3.6446000e+00	   3.4574000e+00	  -5.7771000e+00	  -3.0565000e+01	  -3.4849000e+01	
   6.5400000e-01	  -3.0554000e+00	  -5.5596000e+00	   5.4689000e+00	   3.0446000e+00	   4.5574000e+00	  -1.7777000e+01	  -2.8565000e+01	  -2.4849000e+01	
   6.5600000e-01	  -2.3554000e+00	  -4.9596000e+00	   5.0689000e+00	   3.1446000e+00	   4.5574000e+00	  -7.7771000e+00	  -1.4565000e+01	  -1.0849000e+01	
   6.5800000e-01	  -2.4554000e+00	  -4.1596000e+00	   4.6689000e+00	   3.1446000e+00	   3.2574000e+00	  -5.7771000e+00	  -1.4565000e+01	  -1.0849000e+01	
   6.6000000e-01	  -8.5536000e-01	  -3.8596000e+00	   5.6689000e+00	   4.3446000e+00	   4.1574000e+00	   3.4223000e+01	   9.4350000e+00	  -1.2849000e+01	
   6.6200000e-01	  -2.5536000e-01	  -3.6596000e+00	   3.6689000e+00	   1.8446000e+00	   1.1574000e+00	   1.2223000e+01	  -6.5650000e+00	  -1.8849000e+01	
   6.6400000e-01	  -1.8554000e+00	  -5.2596000e+00	   3.3689000e+00	   2.0446000e+00	   8.5743000e-01	   1.0223000e+01	  -1.6565000e+01	  -2.8849000e+01	
   6.6600000e-01	  -2.3554000e+00	  -4.6596000e+00	   4.8689000e+00	   2.3446000e+00	   1.8574000e+00	   4.2229000e+00	  -8.5650000e+00	  -2.6849000e+01	
   6.6800000e-01	  -4.5536000e-01	  -3.9596000e+00	   4.4689000e+00	   1.9446000e+00	   2.1574000e+00	   8.2229000e+00	  -8.5650000e+00	  -4.8493000e+00	
   6.7000000e-01	  -1.1554000e+00	  -1.8596000e+00	   3.6689000e+00	   3.4457000e-01	   1.2574000e+00	   2.2229000e+00	  -1.4565000e+01	  -1.0849000e+01	
   6.7200000e-01	  -2.5536000e-01	  -6.5961000e-01	   2.5689000e+00	   3.4446000e+00	   1.8574000e+00	   1.2223000e+01	  -5.6500000e-01	  -2.8493000e+00	
   6.7400000e-01	  -6.5536000e-01	  -2.1596000e+00	   2.3689000e+00	   4.5446000e+00	   2.8574000e+00	   1.8223000e+01	   7.4350000e+00	  -2.8493000e+00	
   6.7600000e-01	  -2.2554000e+00	  -2.4596000e+00	   2.1689000e+00	   2.5446000e+00	   2.5743000e-01	   2.2286000e-01	  -1.2565000e+01	  -8.8493000e+00	
   6.7800000e-01	  -3.1554000e+00	  -2.5596000e+00	   3.1689000e+00	   5.0446000e+00	   1.1574000e+00	   2.2229000e+00	  -8.5650000e+00	   3.1507000e+00	
   6.8000000e-01	  -1.2554000e+00	  -1.0596000e+00	   3.4689000e+00	   3.5446000e+00	   1.6574000e+00	   6.2229000e+00	   7.4350000e+00	   1.5151000e+01	
   6.8200000e-01	  -2.4554000e+00	  -3.0596000e+00	   4.0689000e+00	   4.7446000e+00	   4.2574000e+00	   2.6223000e+01	   2.1435000e+01	   1.9151000e+01	
   6.8400000e-01	  -3.1554000e+00	  -2.8596000e+00	   5.0689000e+00	   4.2446000e+00	   3.9574000e+00	   2.6223000e+01	   2.3435000e+01	   1.1151000e+01	
   6.8600000e-01	  -4.4554000e+00	  -3.9596000e+00	   1.6689000e+00	   3.6446000e+00	   1.1574000e+00	   1.0223000e+01	   2.1435000e+01	  -2.8493000e+00	
   6.8800000e-01	  -6.0554000e+00	  -4.1596000e+00	  -6.3107000e-01	   4.3446000e+00	  -1.9426000e+00	   2.2286000e-01	   3.4350000e+00	   1.3151000e+01	
   6.9000000e-01	  -4.9554000e+00	  -1.7596000e+00	  -2.4311000e+00	   9.1446000e+00	  -3.4257000e-01	   4.4223000e+01	   5.1435000e+01	   5.5151000e+01	
   6.9200000e-01	  -4.7554000e+00	   1.9404000e+00	  -3.4311000e+00	   7.1446000e+00	  -7.4257000e-01	   3.2223000e+01	   4.5435000e+01	   5.1151000e+01	
   6.9400000e-01	  -4.7554000e+00	   9.4039000e-01	  -3.3311000e+00	   6.7446000e+00	  -2.5426000e+00	   1.6223000e+01	   3.9435000e+01	   3.1151000e+01	
   6.9600000e-01	  -6.0554000e+00	   2.4039000e-01	  -3.2311000e+00	   6.2446000e+00	  -4.2426000e+00	   1.8223000e+01	   4.3435000e+01	   3.1151000e+01	
   6.9800000e-01	  -6.6554000e+00	   1.5404000e+00	  -1.9311000e+00	   5.7446000e+00	  -3.4426000e+00	   2.2223000e+01	   5.5435000e+01	   4.1151000e+01	
   7.0000000e-01	  -6.5554000e+00	   1.2404000e+00	  -1.3311000e+00	   7.2446000e+00	  -3.5426000e+00	  -1.5777000e+01	   2.3435000e+01	   2.9151000e+01	
   7.0200000e-01	  -4.3554000e+00	   2.6404000e+00	  -6.3107000e-01	   6.5446000e+00	  -2.2426000e+00	  -1.5777000e+01	   1.9435000e+01	   2.5151000e+01	
   7.0400000e-01	  -8.5536000e-01	   1.8404000e+00	   5.6893000e-01	   6.2446000e+00	  -1.7426000e+00	  -1.3777000e+01	   2.1435000e+01	   2.3151000e+01	
   7.0600000e-01	   1.2446000e+00	   2.1404000e+00	   1.0689000e+00	   3.8446000e+00	  -4.4257000e-01	  -1.5777000e+01	   1.3435000e+01	   5.1507000e+00	
   7.0800000e-01	   1.4446000e+00	   1.2404000e+00	   1.9689000e+00	   3.2446000e+00	   8.5743000e-01	  -1.5777000e+01	   1.3435000e+01	   1.1151000e+01	
   7.1000000e-01	   1.0446000e+00	   7.4039000e-01	   4.6893000e-01	   2.8446000e+00	  -9.4257000e-01	  -2.5777000e+01	  -2.5650000e+00	  -8.8493000e+00	
   7.1200000e-01	   9.4464000e-01	   2.0404000e+00	  -2.3107000e-01	   3.4446000e+00	  -1.1426000e+00	  -5.7771000e+00	   5.4350000e+00	  -2.8493000e+00	
   7.1400000e-01	   1.7446000e+00	  -4.5961000e-01	   1.6689000e+00	   2.8446000e+00	  -1.0426000e+00	  -2.1777000e+01	  -1.8565000e+01	  -2.2849000e+01	
   7.1600000e-01	   2.3446000e+00	  -1.9596000e+00	   2.6689000e+00	   1.7446000e+00	   2.5743000e-01	  -1.7771000e+00	  -4.5650000e+00	  -1.4849000e+01	
   7.1800000e-01	   3.4446000e+00	  -3.2596000e+00	   3.1689000e+00	   1.8446000e+00	   5.5743000e-01	  -1.1777000e+01	  -2.4565000e+01	  -4.6849000e+01	
   7.2000000e-01	   3.5446000e+00	  -3.2596000e+00	   2.7689000e+00	   2.6446000e+00	   5.5743000e-01	  -1.7771000e+00	  -2.8565000e+01	  -4.0849000e+01	
   7.2200000e-01	   4.1446000e+00	  -3.5596000e+00	   2.7689000e+00	   3.3446000e+00	   2.4574000e+00	   2.2229000e+00	  -3.0565000e+01	  -4.2849000e+01	
   7.2400000e-01	   3.9446000e+00	  -6.0596000e+00	   1.5689000e+00	   3.9446000e+00	   3.7574000e+00	  -1.1777000e+01	  -3.4565000e+01	  -4.8849000e+01	
   7.2600000e-01	   4.4446000e+00	  -5.4596000e+00	   2.6689000e+00	   6.6446000e+00	   4.9574000e+00	   8.2229000e+00	  -2.6565000e+01	  -4.8849000e+01	
   7.2800000e-01	   4.0446000e+00	  -6.3596000e+00	   2.7689000e+00	   2.6446000e+00	   2.9574000e+00	   6.2229000e+00	  -1.4565000e+01	  -2.8849000e+01	
   7.3000000e-01	   3.6446000e+00	  -4.8596000e+00	   4.9689000e+00	   3.4446000e+00	   1.9574000e+00	   4.2229000e+00	  -2.4565000e+01	  -3.0849000e+01	
   7.3200000e-01	   3.7446000e+00	  -4.0596000e+00	   5.7689000e+00	   4.5446000e+00	   1.7574000e+00	   8.2229000e+00	  -1.6565000e+01	  -1.8849000e+01	
   7.3400000e-01	   5.3446000e+00	  -4.3596000e+00	   5.9689000e+00	   5.2446000e+00	   1.5574000e+00	  -9.7771000e+00	  -2.2565000e+01	  -3.0849000e+01	
   7.3600000e-01	   3.4446000e+00	  -5.0596000e+00	   5.2689000e+00	   5.5446000e+00	   4.0574000e+00	  -1.7771000e+00	  -2.8565000e+01	  -3.0849000e+01	
   7.3800000e-01	   3.9446000e+00	  -2.6596000e+00	   6.2689000e+00	   5.3446000e+00	   5.1574000e+00	   1.2223000e+01	  -1.4565000e+01	  -2.2849000e+01	
   7.4000000e-01	   2.7446000e+00	  -3.9596000e+00	   5.0689000e+00	   5.4446000e+00	   5.1574000e+00	   2.2286000e-01	  -2.4565000e+01	  -3.4849000e+01	
   7.4200000e-01	   2.2446000e+00	  -6.7596000e+00	   4.5689000e+00	   3.6446000e+00	   5.7574000e+00	  -1.7771000e+00	  -2.0565000e+01	  -2.8849000e+01	
   7.4400000e-01	   3.6446000e+00	  -6.5596000e+00	   2.4689000e+00	   2.8446000e+00	   5.1574000e+00	  -7.7771000e+00	  -2.4565000e+01	  -4.2849000e+01	
   7.4600000e-01	   2.8446000e+00	  -6.4596000e+00	   1.5689000e+00	   5.2446000e+00	   5.5574000e+00	  -5.7771000e+00	  -1.8565000e+01	  -3.6849000e+01	
   7.4800000e-01	   1.5446000e+00	  -6.2596000e+00	   1.8689000e+00	   6.6446000e+00	   4.8574000e+00	  -3.7771000e+00	  -2.0565000e+01	  -2.8849000e+01	
   7.5000000e-01	   9.4464000e-01	  -6.0596000e+00	   1.9689000e+00	   5.1446000e+00	   3.4574000e+00	  -9.7771000e+00	  -2.2565000e+01	  -6.8493000e+00	
   7.5200000e-01	   1.6446000e+00	  -2.5596000e+00	   2.9689000e+00	   5.1446000e+00	   3.6574000e+00	   2.2286000e-01	  -1.4565000e+01	  -2.0849000e+01	
   7.5400000e-01	   9.4464000e-01	  -2.3596000e+00	   1.5689000e+00	   4.9446000e+00	   2.6574000e+00	   1.0223000e+01	   5.4350000e+00	  -6.8493000e+00	
   7.5600000e-01	  -1.0554000e+00	  -2.8596000e+00	   2.1689000e+00	   5.6446000e+00	   1.8574000e+00	  -5.7771000e+00	  -2.5650000e+00	  -8.8493000e+00	
   7.5800000e-01	   1.4464000e-01	  -2.2596000e+00	   3.5689000e+00	   6.9446000e+00	   3.6574000e+00	   3.2223000e+01	  -4.5650000e+00	  -8.4929000e-01	
   7.6000000e-01	   4.4643000e-02	  -6.1596000e+00	   5.5689000e+00	   7.0446000e+00	   5.6574000e+00	   3.6223000e+01	  -3.8565000e+01	  -1.6849000e+01	
   7.6200000e-01	  -2.6554000e+00	  -9.5596000e+00	   7.1689000e+00	   7.4446000e+00	   9.0574000e+00	   6.0223000e+01	  -3.8565000e+01	  -4.8493000e+00	
   7.6400000e-01	  -5.3554000e+00	  -1.2160000e+01	   6.1689000e+00	   1.0745000e+01	   9.7574000e+00	   7.2223000e+01	  -8.5650000e+00	   3.7151000e+01	
   7.6600000e-01	  -6.3554000e+00	  -1.0860000e+01	   4.0689000e+00	   1.5645000e+01	   6.9574000e+00	   5.6223000e+01	   2.5435000e+01	   5.9151000e+01	
   7.6800000e-01	  -1.1955000e+01	  -4.9596000e+00	  -1.6311000e+00	   1.6945000e+01	  -2.0426000e+00	   8.2229000e+00	   1.6544000e+02	   2.1115000e+02	
   7.7000000e-01	  -1.8755000e+01	   6.5404000e+00	  -1.2131000e+01	   2.0145000e+01	  -1.6143000e+01	  -1.2178000e+02	   3.1544000e+02	   3.6715000e+02	
   7.7200000e-01	  -2.7655000e+01	   2.8340000e+01	  -2.8631000e+01	   2.1845000e+01	  -3.5143000e+01	  -2.7778000e+02	   4.9943000e+02	   5.2115000e+02	
   7.7400000e-01	  -3.5855000e+01	   5.2040000e+01	  -4.5631000e+01	   2.0745000e+01	  -5.6043000e+01	  -4.5978000e+02	   6.4143000e+02	   6.6115000e+02	
   7.7600000e-01	  -4.0955000e+01	   6.9840000e+01	  -5.5131000e+01	   1.8145000e+01	  -7.1443000e+01	  -6.3178000e+02	   7.4743000e+02	   7.6715000e+02	
   7.7800000e-01	  -4.6455000e+01	   8.5240000e+01	  -6.5531000e+01	   1.3645000e+01	  -8.7343000e+01	  -7.2778000e+02	   8.3143000e+02	   7.9315000e+02	
   7.8000000e-01	  -4.0255000e+01	   1.0004000e+02	  -6.5431000e+01	   3.0446000e+00	  -8.9043000e+01	  -6.2778000e+02	   7.2343000e+02	   5.4115000e+02	
   7.8200000e-01	  -1.6455000e+01	   9.5940000e+01	  -4.8831000e+01	  -1.1755000e+01	  -6.7743000e+01	  -3.7978000e+02	   4.8543000e+02	   1.7715000e+02	
   7.8400000e-01	   1.3545000e+01	   7.9440000e+01	  -2.5731000e+01	  -2.4955000e+01	  -4.0043000e+01	  -1.6578000e+02	   1.4744000e+02	  -1.2485000e+02	
   7.8600000e-01	   2.9645000e+01	   5.3340000e+01	  -3.7311000e+00	  -2.8455000e+01	  -1.4543000e+01	   2.2223000e+01	  -1.2456000e+02	  -3.3685000e+02	
   7.8800000e-01	   3.6245000e+01	   2.3540000e+01	   1.0369000e+01	  -2.4655000e+01	   4.6574000e+00	   1.3822000e+02	  -2.5856000e+02	  -3.8285000e+02	
   7.9000000e-01	   3.3945000e+01	   3.4039000e-01	   1.7269000e+01	  -1.1855000e+01	   1.7857000e+01	   1.8022000e+02	  -2.8656000e+02	  -3.2485000e+02	
   7.9200000e-01	   2.2845000e+01	  -1.8360000e+01	   1.8769000e+01	   4.4571000e-02	   2.5657000e+01	   2.0422000e+02	  -2.4456000e+02	  -2.3085000e+02	
   7.9400000e-01	   1.5645000e+01	  -2.6660000e+01	   1.8969000e+01	   7.6446000e+00	   2.7857000e+01	   1.7822000e+02	  -2.3856000e+02	  -1.9685000e+02	
   7.9600000e-01	   1.1545000e+01	  -3.0060000e+01	   1.9169000e+01	   9.8446000e+00	   2.8857000e+01	   1.8222000e+02	  -2.1256000e+02	  -1.7285000e+02	
   7.9800000e-01	   7.5446000e+00	  -3.1560000e+01	   1.6869000e+01	   8.5446000e+00	   2.6557000e+01	   1.5622000e+02	  -2.1856000e+02	  -1.6685000e+02	
   8.0000000e-01	   8.5446000e+00	  -3.1060000e+01	   1.7569000e+01	   9.3446000e+00	   2.5857000e+01	   1.5022000e+02	  -2.0456000e+02	  -1.4885000e+02	
   8.0200000e-01	   7.1446000e+00	  -3.0360000e+01	   1.6769000e+01	   8.9446000e+00	   2.5557000e+01	   1.5622000e+02	  -1.8856000e+02	  -1.2485000e+02	
   8.0400000e-01	   6.6446000e+00	  -2.8860000e+01	   1.6569000e+01	   6.9446000e+00	   2.3857000e+01	   1.3422000e+02	  -1.8456000e+02	  -1.3485000e+02	
   8.0600000e-01	   6.8446000e+00	  -2.7060000e+01	   1.6369000e+01	   7.0446000e+00	   2.3357000e+01	   1.3822000e+02	  -1.7456000e+02	  -1.2485000e+02	
   8.0800000e-01	   6.8446000e+00	  -2.6960000e+01	   1.5569000e+01	   7.4446000e+00	   2.2257000e+01	   1.1622000e+02	  -1.5856000e+02	  -1.1885000e+02	
   8.1000000e-01	   5.7446000e+00	  -2.6360000e+01	   1.5269000e+01	   9.2446000e+00	   2.0957000e+01	   1.1622000e+02	  -1.5656000e+02	  -1.0885000e+02	
   8.1200000e-01	   5.8446000e+00	  -2.5560000e+01	   1.4369000e+01	   1.2545000e+01	   1.9557000e+01	   1.0822000e+02	  -1.5456000e+02	  -1.0485000e+02	
   8.1400000e-01	   5.8446000e+00	  -2.3260000e+01	   1.3969000e+01	   1.2745000e+01	   1.6957000e+01	   1.1422000e+02	  -1.1856000e+02	  -6.4849000e+01	
   8.1600000e-01	   4.9446000e+00	  -2.0960000e+01	   1.5269000e+01	   1.2545000e+01	   1.5857000e+01	   1.0222000e+02	  -1.2056000e+02	  -8.8849000e+01	
   8.1800000e-01	   2.0446000e+00	  -2.2460000e+01	   1.5169000e+01	   1.4145000e+01	   1.6057000e+01	   9.2223000e+01	  -1.1256000e+02	  -8.4849000e+01	
   8.2000000e-01	   1.5446000e+00	  -1.9660000e+01	   1.4169000e+01	   1.2845000e+01	   1.5557000e+01	   9.6223000e+01	  -9.2565000e+01	  -7.0849000e+01	
   8.2200000e-01	   1.8446000e+00	  -1.7860000e+01	   1.2569000e+01	   1.0445000e+01	   1.1857000e+01	   8.2223000e+01	  -8.4565000e+01	  -5.4849000e+01	
   8.2400000e-01	   2.7446000e+00	  -1.5960000e+01	   1.1869000e+01	   1.0345000e+01	   1.0157000e+01	   6.0223000e+01	  -9.0565000e+01	  -6.2849000e+01	
   8.2600000e-01	   3.1446000e+00	  -1.5360000e+01	   1.0469000e+01	   8.4446000e+00	   9.7574000e+00	   6.8223000e+01	  -7.6565000e+01	  -5.6849000e+01	
   8.2800000e-01	   3.1446000e+00	  -1.3860000e+01	   9.7689000e+00	   7.8446000e+00	   8.2574000e+00	   5.8223000e+01	  -7.0565000e+01	  -4.6849000e+01	
   8.3000000e-01	   1.6446000e+00	  -1.2660000e+01	   1.1269000e+01	   8.8446000e+00	   9.7574000e+00	   7.8223000e+01	  -5.0565000e+01	  -3.8849000e+01	
   8.3200000e-01	   5.4464000e-01	  -1.3160000e+01	   9.8689000e+00	   7.6446000e+00	   7.6574000e+00	   5.8223000e+01	  -4.2565000e+01	  -2.8849000e+01	
   8.3400000e-01	   3.1446000e+00	  -1.2260000e+01	   9.3689000e+00	   7.9446000e+00	   6.5574000e+00	   4.8223000e+01	  -5.4565000e+01	  -4.0849000e+01	
   8.3600000e-01	   1.4446000e+00	  -1.0660000e+01	   9.4689000e+00	   8.1446000e+00	   8.0574000e+00	   5.4223000e+01	  -4.6565000e+01	  -3.8849000e+01	
   8.3800000e-01	   4.4464000e-01	  -1.0760000e+01	   7.8689000e+00	   7.8446000e+00	   7.0574000e+00	   4.4223000e+01	  -3.2565000e+01	  -2.0849000e+01	
   8.4000000e-01	   9.4464000e-01	  -7.7596000e+00	   8.8689000e+00	   1.0345000e+01	   6.3574000e+00	   3.8223000e+01	  -3.8565000e+01	  -3.6849000e+01	
   8.4200000e-01	   5.4464000e-01	  -7.3596000e+00	   9.9689000e+00	   7.2446000e+00	   6.6574000e+00	   4.2223000e+01	  -2.4565000e+01	  -8.8493000e+00	
   8.4400000e-01	   1.4464000e-01	  -4.8596000e+00	   6.5689000e+00	   7.0446000e+00	   5.4574000e+00	   3.0223000e+01	  -1.8565000e+01	  -2.8493000e+00	
   8.4600000e-01	   8.4464000e-01	  -3.9596000e+00	   5.1689000e+00	   8.0446000e+00	   4.8574000e+00	   2.8223000e+01	  -1.6565000e+01	  -1.4849000e+01	
   8.4800000e-01	   3.4446000e+00	  -5.1596000e+00	   6.3689000e+00	   8.7446000e+00	   6.0574000e+00	   4.2223000e+01	  -1.0565000e+01	  -1.6849000e+01	
   8.5000000e-01	   1.0446000e+00	  -5.1596000e+00	   6.0689000e+00	   7.4446000e+00	   5.0574000e+00	   1.8223000e+01	  -2.4565000e+01	  -1.6849000e+01	
   8.5200000e-01	  -5.5536000e-01	  -3.6596000e+00	   7.3689000e+00	   1.2145000e+01	   7.0574000e+00	   3.2223000e+01	  -1.0565000e+01	  -4.8493000e+00	
   8.5400000e-01	   2.4446000e+00	  -2.0596000e+00	   4.1689000e+00	   1.2645000e+01	   7.3574000e+00	   3.2223000e+01	   1.4350000e+00	  -8.4929000e-01	
   8.5600000e-01	   7.6446000e+00	   2.0404000e+00	   6.6893000e-01	   1.0845000e+01	   8.3574000e+00	   3.4223000e+01	   9.4350000e+00	   7.1507000e+00	
   8.5800000e-01	   1.7345000e+01	   9.3404000e+00	  -3.2311000e+00	   1.1145000e+01	   8.4574000e+00	   1.4223000e+01	  -6.5650000e+00	  -1.0849000e+01	
   8.6000000e-01	   1.7845000e+01	   1.2140000e+01	  -9.6311000e+00	   9.8446000e+00	   3.7574000e+00	   2.8223000e+01	   1.7435000e+01	   1.5151000e+01	
   8.6200000e-01	   1.2745000e+01	   9.3404000e+00	  -1.3131000e+01	   7.3446000e+00	  -4.3426000e+00	   6.2229000e+00	   5.4350000e+00	   1.3151000e+01	
   8.6400000e-01	  -2.4554000e+00	  -2.3596000e+00	  -5.0311000e+00	   5.9446000e+00	  -1.0143000e+01	   2.2286000e-01	   3.4350000e+00	   9.1507000e+00	
   8.6600000e-01	  -1.3855000e+01	  -1.1560000e+01	   6.2689000e+00	   4.1446000e+00	  -8.5426000e+00	   2.4223000e+01	   2.1435000e+01	   2.1151000e+01	
   8.6800000e-01	  -1.0955000e+01	  -1.0860000e+01	   6.9689000e+00	   1.1446000e+00	  -5.3426000e+00	   1.4223000e+01	   1.9435000e+01	   2.7151000e+01	
   8.7000000e-01	  -1.7554000e+00	  -3.4596000e+00	   5.3689000e+00	   2.4446000e+00	  -1.2426000e+00	   6.2229000e+00	   1.3435000e+01	   1.7151000e+01	
   8.7200000e-01	  -2.5536000e-01	   3.4039000e-01	   4.8689000e+00	   3.7446000e+00	  -1.0426000e+00	   8.2229000e+00	   3.5435000e+01	   5.3151000e+01	
   8.7400000e-01	  -5.5357000e-02	   1.8404000e+00	   5.1689000e+00	   3.0446000e+00	  -1.3426000e+00	  -1.1777000e+01	   1.9435000e+01	   3.5151000e+01	
   8.7600000e-01	  -7.5536000e-01	   1.0404000e+00	   5.6689000e+00	   2.7446000e+00	  -1.8426000e+00	  -1.1777000e+01	   2.5435000e+01	   2.9151000e+01	
   8.7800000e-01	  -1.9554000e+00	   6.4039000e-01	   3.6689000e+00	   2.3446000e+00	  -3.2426000e+00	  -1.3777000e+01	   3.1435000e+01	   3.7151000e+01	
   8.8000000e-01	  -3.1554000e+00	  -1.0596000e+00	   1.4689000e+00	   2.2446000e+00	  -4.9426000e+00	  -2.3777000e+01	   3.1435000e+01	   2.7151000e+01	
   8.8200000e-01	  -3.0554000e+00	  -2.5961000e-01	   1.5689000e+00	   3.6446000e+00	  -3.8426000e+00	  -1.3777000e+01	   3.9435000e+01	   3.5151000e+01	
   8.8400000e-01	  -1.3554000e+00	   1.7404000e+00	   2.1689000e+00	   5.9446000e+00	  -2.8426000e+00	   2.2286000e-01	   6.7435000e+01	   5.7151000e+01	
   8.8600000e-01	  -5.5536000e-01	   3.6404000e+00	   1.7689000e+00	   6.1446000e+00	  -3.5426000e+00	  -1.7777000e+01	   5.3435000e+01	   4.9151000e+01	
   8.8800000e-01	  -1.5554000e+00	   4.1404000e+00	   9.6893000e-01	   8.5446000e+00	  -1.1426000e+00	  -2.7777000e+01	   4.3435000e+01	   3.7151000e+01	
   8.9000000e-01	  -1.9554000e+00	   2.6404000e+00	  -2.1311000e+00	   6.3446000e+00	  -1.9426000e+00	  -3.9777000e+01	   3.9435000e+01	   3.1151000e+01	
   8.9200000e-01	  -5.5536000e-01	   2.5404000e+00	  -3.3107000e-01	   6.8446000e+00	  -2.1426000e+00	  -2.7777000e+01	   3.5435000e+01	   3.3151000e+01	
   8.9400000e-01	  -9.5536000e-01	   9.4039000e-01	   1.7689000e+00	   1.0245000e+01	  -1.0426000e+00	   6.2229000e+00	   7.7435000e+01	   6.3151000e+01	
   8.9600000e-01	  -5.5357000e-02	   3.4404000e+00	   1.0689000e+00	   9.0446000e+00	  -2.1426000e+00	  -1.5777000e+01	   5.9435000e+01	   5.7151000e+01	
   8.9800000e-01	  -6.5536000e-01	   4.5404000e+00	  -8.3107000e-01	   7.3446000e+00	  -2.5426000e+00	  -2.9777000e+01	   4.9435000e+01	   4.1151000e+01	
   9.0000000e-01	  -1.9554000e+00	   2.2404000e+00	  -1.2311000e+00	   7.1446000e+00	  -2.0426000e+00	  -2.3777000e+01	   5.3435000e+01	   4.1151000e+01	
   9.0200000e-01	  -2.6554000e+00	   1.0404000e+00	  -1.9311000e+00	   6.2446000e+00	  -2.6426000e+00	  -1.9777000e+01	   6.9435000e+01	   5.5151000e+01	
   9.0400000e-01	  -2.4554000e+00	   2.6404000e+00	  -3.1311000e+00	   6.3446000e+00	  -3.8426000e+00	  -4.1777000e+01	   3.7435000e+01	   2.5151000e+01	
   9.0600000e-01	  -2.1554000e+00	   3.7404000e+00	  -4.3107000e-01	   7.5446000e+00	  -1.4426000e+00	  -1.5777000e+01	   5.5435000e+01	   3.5151000e+01	
   9.0800000e-01	  -2.3554000e+00	   9.4039000e-01	   8.6893000e-01	   5.8446000e+00	  -2.1426000e+00	  -2.1777000e+01	   5.5435000e+01	   5.5151000e+01	
   9.1000000e-01	  -9.5536000e-01	   2.3404000e+00	   6.6893000e-01	   7.4446000e+00	  -2.5426000e+00	  -2.1777000e+01	   4.3435000e+01	   6.1151000e+01	
   9.1200000e-01	  -2.1554000e+00	   2.1404000e+00	   1.9689000e+00	   9.1446000e+00	  -4.4257000e-01	  -2.5777000e+01	   2.9435000e+01	   3.9151000e+01	
   9.1400000e-01	  -3.1554000e+00	  -2.5961000e-01	   1.9689000e+00	   7.1446000e+00	   2.2574000e+00	  -1.3777000e+01	   3.9435000e+01	   4.5151000e+01	
   9.1600000e-01	  -3.1554000e+00	  -1.3596000e+00	   1.5689000e+00	   7.5446000e+00	   3.7574000e+00	  -1.1777000e+01	   1.5435000e+01	   1.7151000e+01	
   9.1800000e-01	  -2.4554000e+00	  -2.3596000e+00	   3.2689000e+00	   8.5446000e+00	   6.3574000e+00	   1.4223000e+01	   3.3435000e+01	   3.7151000e+01	
   9.2000000e-01	  -2.7554000e+00	  -2.8596000e+00	   3.2689000e+00	   9.0446000e+00	   6.2574000e+00	   2.6223000e+01	   2.3435000e+01	   3.7151000e+01	
   9.2200000e-01	  -2.5536000e-01	  -4.8596000e+00	   4.3689000e+00	   8.4446000e+00	   5.1574000e+00	   8.2229000e+00	  -1.2565000e+01	  -6.8493000e+00	
   9.2400000e-01	  -4.5536000e-01	  -8.3596000e+00	   5.3689000e+00	   8.6446000e+00	   5.9574000e+00	   2.8223000e+01	  -6.5650000e+00	   1.9151000e+01	
   9.2600000e-01	   1.7446000e+00	  -7.3596000e+00	   6.9689000e+00	   6.3446000e+00	   5.6574000e+00	   1.2223000e+01	  -3.6565000e+01	  -1.6849000e+01	
   9.2800000e-01	   6.4464000e-01	  -6.7596000e+00	   7.6689000e+00	   3.9446000e+00	   7.1574000e+00	   4.0223000e+01	  -2.8565000e+01	  -1.2849000e+01	
   9.3000000e-01	   1.8446000e+00	  -5.7596000e+00	   1.0969000e+01	   4.7446000e+00	   8.1574000e+00	   3.4223000e+01	  -4.2565000e+01	  -6.2849000e+01	
   9.3200000e-01	   4.4464000e-01	  -9.1596000e+00	   9.7689000e+00	   5.0446000e+00	   1.0857000e+01	   6.8223000e+01	  -1.2565000e+01	  -3.6849000e+01	
   9.3400000e-01	   3.6446000e+00	  -9.4596000e+00	   7.9689000e+00	   4.2446000e+00	   9.2574000e+00	   2.6223000e+01	  -5.4565000e+01	  -5.8849000e+01	
   9.3600000e-01	   3.5446000e+00	  -1.0360000e+01	   9.1689000e+00	   3.4446000e+00	   9.0574000e+00	   1.2223000e+01	  -7.0565000e+01	  -6.2849000e+01	
   9.3800000e-01	   3.5446000e+00	  -8.2596000e+00	   1.0869000e+01	   3.0446000e+00	   1.0557000e+01	   4.8223000e+01	  -4.8565000e+01	  -4.4849000e+01	
   9.4000000e-01	   4.5446000e+00	  -7.7596000e+00	   1.1969000e+01	   4.0446000e+00	   1.1457000e+01	   4.0223000e+01	  -6.8565000e+01	  -7.0849000e+01	
   9.4200000e-01	   4.0446000e+00	  -7.6596000e+00	   1.3469000e+01	   4.3446000e+00	   1.2257000e+01	   7.0223000e+01	  -4.0565000e+01	  -5.0849000e+01	
   9.4400000e-01	   5.9446000e+00	  -8.5596000e+00	   1.0669000e+01	   4.0446000e+00	   1.1857000e+01	   5.4223000e+01	  -4.8565000e+01	  -7.2849000e+01	
   9.4600000e-01	   5.7446000e+00	  -9.1596000e+00	   8.2689000e+00	   3.2446000e+00	   9.2574000e+00	   4.0223000e+01	  -7.2565000e+01	  -8.8849000e+01	
   9.4800000e-01	   3.8446000e+00	  -8.1596000e+00	   9.0689000e+00	   4.9446000e+00	   9.1574000e+00	   4.6223000e+01	  -4.8565000e+01	  -6.6849000e+01	
   9.5000000e-01	   3.3446000e+00	  -6.7596000e+00	   8.6689000e+00	   4.1446000e+00	   1.0057000e+01	   5.6223000e+01	  -3.4565000e+01	  -4.2849000e+01	
   9.5200000e-01	   5.7446000e+00	  -5.3596000e+00	   8.8689000e+00	   4.0446000e+00	   8.7574000e+00	   3.4223000e+01	  -4.0565000e+01	  -5.8849000e+01	
   9.5400000e-01	   4.8446000e+00	  -6.0596000e+00	   7.9689000e+00	   3.6446000e+00	   8.5574000e+00	   3.8223000e+01	  -4.0565000e+01	  -5.4849000e+01	
   9.5600000e-01	   3.6446000e+00	  -4.7596000e+00	   7.9689000e+00	   3.5446000e+00	   7.3574000e+00	   2.6223000e+01	  -3.8565000e+01	  -4.2849000e+01	
   9.5800000e-01	   1.3446000e+00	  -5.1596000e+00	   5.9689000e+00	   4.8446000e+00	   7.6574000e+00	   2.0223000e+01	  -4.0565000e+01	  -5.2849000e+01	
   9.6000000e-01	   1.3446000e+00	  -5.3596000e+00	   5.2689000e+00	   5.9446000e+00	   7.4574000e+00	   1.4223000e+01	  -4.4565000e+01	  -5.4849000e+01	
   9.6200000e-01	  -4.5536000e-01	  -5.4596000e+00	   5.2689000e+00	   7.2446000e+00	   8.8574000e+00	   2.0223000e+01	  -3.2565000e+01	  -5.2849000e+01	
   9.6400000e-01	  -8.5536000e-01	  -6.3596000e+00	   4.1689000e+00	   4.5446000e+00	   7.8574000e+00	   2.4223000e+01	  -2.2565000e+01	  -4.0849000e+01	
   9.6600000e-01	  -5.5357000e-02	  -6.1596000e+00	   6.9689000e+00	   5.7446000e+00	   7.0574000e+00	   3.2223000e+01	  -1.4565000e+01	  -1.4849000e+01	
   9.6800000e-01	  -4.5536000e-01	  -5.0596000e+00	   7.9689000e+00	   7.1446000e+00	   6.7574000e+00	   1.4223000e+01	  -2.0565000e+01	  -1.2849000e+01	
   9.7000000e-01	  -6.5536000e-01	  -5.5596000e+00	   8.0689000e+00	   7.6446000e+00	   8.1574000e+00	   3.0223000e+01	  -1.0565000e+01	  -1.2849000e+01	
   9.7200000e-01	  -1.4554000e+00	  -7.0596000e+00	   6.1689000e+00	   6.2446000e+00	   7.5574000e+00	   1.4223000e+01	  -2.0565000e+01	  -2.2849000e+01	
   9.7400000e-01	  -1.9554000e+00	  -6.3596000e+00	   6.2689000e+00	   6.7446000e+00	   7.3574000e+00	   1.2223000e+01	  -1.8565000e+01	  -2.0849000e+01	
   9.7600000e-01	  -1.0554000e+00	  -3.6596000e+00	   7.3689000e+00	   8.9446000e+00	   7.6574000e+00	   1.4223000e+01	  -8.5650000e+00	  -1.2849000e+01	
   9.7800000e-01	  -1.9554000e+00	  -4.9596000e+00	   4.4689000e+00	   9.9446000e+00	   6.3574000e+00	   6.2229000e+00	  -1.4565000e+01	  -2.0849000e+01	
   9.8000000e-01	  -5.7554000e+00	  -7.3596000e+00	   5.2689000e+00	   1.0045000e+01	   5.3574000e+00	   2.2229000e+00	  -1.2565000e+01	  -1.4849000e+01	
   9.8200000e-01	  -7.2554000e+00	  -5.3596000e+00	   4.2689000e+00	   9.7446000e+00	   3.6574000e+00	  -5.7771000e+00	  -1.4565000e+01	  -1.6849000e+01	
   9.8400000e-01	  -7.7554000e+00	  -3.9596000e+00	   4.8689000e+00	   9.3446000e+00	   3.6574000e+00	   2.2229000e+00	  -1.2565000e+01	  -1.2849000e+01	
   9.8600000e-01	  -8.7554000e+00	  -3.5596000e+00	   5.7689000e+00	   9.7446000e+00	   3.7574000e+00	   2.2229000e+00	  -1.2565000e+01	  -3.4849000e+01	
   9.8800000e-01	  -1.2655000e+01	  -7.4596000e+00	   4.1689000e+00	   6.7446000e+00	   3.1574000e+00	   1.2223000e+01	  -2.5650000e+00	  -1.0849000e+01	
   9.9000000e-01	  -1.0855000e+01	  -5.7596000e+00	   2.2689000e+00	   5.7446000e+00	   1.7574000e+00	   2.2229000e+00	  -8.5650000e+00	  -2.0849000e+01	
   9.9200000e-01	  -1.0355000e+01	  -5.4596000e+00	   3.8689000e+00	   7.4446000e+00	   1.9574000e+00	   4.2229000e+00	  -6.5650000e+00	  -8.8493000e+00	
   9.9400000e-01	  -7.2554000e+00	  -1.8596000e+00	   3.4689000e+00	   8.6446000e+00	   4.0574000e+00	   1.8223000e+01	   3.4350000e+00	   1.1507000e+00	
   9.9600000e-01	  -6.8554000e+00	  -1.1596000e+00	   2.8689000e+00	   6.2446000e+00	   3.0574000e+00	   2.2229000e+00	  -1.0565000e+01	  -2.0849000e+01	
   9.9800000e-01	  -6.7554000e+00	  -3.0596000e+00	   3.5689000e+00	   5.8446000e+00	   2.9574000e+00	   1.2223000e+01	   3.4350000e+00	  -8.8493000e+00	
   1.0000000e+00	  -6.6554000e+00	  -2.8596000e+00	   3.5689000e+00	   4.8446000e+00	   3.3574000e+00	   1.6223000e+01	  -8.5650000e+00	  -2.6849000e+01	
   1.0020000e+00	  -5.0554000e+00	  -2.5596000e+00	   4.7689000e+00	   4.6446000e+00	   2.3574000e+00	   2.2286000e-01	   7.4350000e+00	  -1.2849000e+01	
   1.0040000e+00	  -4.6554000e+00	  -3.1596000e+00	   4.7689000e+00	   6.8446000e+00	   4.8574000e+00	   1.8223000e+01	  -5.6500000e-01	   1.1507000e+00	
   1.0060000e+00	  -4.8554000e+00	  -3.7596000e+00	   3.5689000e+00	   3.4446000e+00	   3.1574000e+00	  -1.5777000e+01	  -1.4565000e+01	  -2.4849000e+01	
   1.0080000e+00	  -6.0554000e+00	  -4.6596000e+00	   6.6689000e+00	   3.4446000e+00	   4.5574000e+00	   4.2229000e+00	  -4.5650000e+00	  -1.0849000e+01	
   1.0100000e+00	  -7.3554000e+00	  -4.9596000e+00	   4.7689000e+00	   4.1446000e+00	   3.8574000e+00	  -7.7771000e+00	  -4.5650000e+00	  -4.8493000e+00	
   1.0120000e+00	  -3.6554000e+00	  -1.4596000e+00	   4.5689000e+00	   7.1446000e+00	   4.7574000e+00	   8.2229000e+00	  -8.5650000e+00	  -6.8493000e+00	
   1.0140000e+00	  -5.3554000e+00	  -4.8596000e+00	   2.6689000e+00	   5.8446000e+00	   4.5574000e+00	   8.2229000e+00	   7.4350000e+00	  -2.8493000e+00	
   1.0160000e+00	  -5.5554000e+00	  -3.6596000e+00	   4.0689000e+00	   6.0446000e+00	   4.3574000e+00	   6.2229000e+00	  -2.5650000e+00	  -1.6849000e+01	
   1.0180000e+00	  -3.6554000e+00	  -2.6596000e+00	   4.1689000e+00	   8.0446000e+00	   5.3574000e+00	   2.0223000e+01	   1.1435000e+01	  -2.8493000e+00	
   1.0200000e+00	  -5.9554000e+00	  -3.1596000e+00	   4.3689000e+00	   6.6446000e+00	   5.0574000e+00	   1.6223000e+01	   5.4350000e+00	   1.1151000e+01	
   1.0220000e+00	  -5.0554000e+00	  -1.6596000e+00	   2.8689000e+00	   8.0446000e+00	   4.6574000e+00	   2.8223000e+01	   9.4350000e+00	   7.1507000e+00	
   1.0240000e+00	  -6.4554000e+00	  -1.5596000e+00	   8.6893000e-01	   9.2446000e+00	   4.4574000e+00	   2.2223000e+01	   1.7435000e+01	   1.9151000e+01	
   1.0260000e+00	  -7.1554000e+00	  -5.5961000e-01	   8.6893000e-01	   1.0945000e+01	   3.3574000e+00	   2.2223000e+01	   2.7435000e+01	   2.7151000e+01	
   1.0280000e+00	  -8.4554000e+00	   1.4039000e-01	   1.6893000e-01	   1.0045000e+01	   2.9574000e+00	   1.2223000e+01	   2.7435000e+01	   3.5151000e+01	
   1.0300000e+00	  -8.4554000e+00	   8.4039000e-01	  -1.3107000e-01	   8.1446000e+00	   2.3574000e+00	   2.8223000e+01	   3.3435000e+01	   3.5151000e+01	
   1.0320000e+00	  -6.7554000e+00	   1.4404000e+00	  -6.3107000e-01	   7.1446000e+00	   1.5743000e-01	   1.6223000e+01	   2.7435000e+01	   2.9151000e+01	
   1.0340000e+00	  -5.4554000e+00	   2.6404000e+00	  -9.3107000e-01	   9.4446000e+00	   8.5743000e-01	   2.6223000e+01	   4.9435000e+01	   3.1151000e+01	
   1.0360000e+00	  -5.2554000e+00	   2.0404000e+00	  -9.3107000e-01	   1.0045000e+01	  -1.0426000e+00	   1.8223000e+01	   3.5435000e+01	   1.1151000e+01	
   1.0380000e+00	  -5.6554000e+00	   9.4039000e-01	  -4.3107000e-01	   1.0245000e+01	  -1.8426000e+00	   2.2223000e+01	   5.5435000e+01	   3.9151000e+01	
   1.0400000e+00	  -3.8554000e+00	   1.2404000e+00	   1.2689000e+00	   1.0245000e+01	  -3.2426000e+00	  -2.3777000e+01	   1.5435000e+01	   1.9151000e+01	
   1.0420000e+00	  -7.0554000e+00	  -2.9596000e+00	   3.3689000e+00	   9.2446000e+00	   1.0574000e+00	  -1.1777000e+01	   3.9435000e+01	   4.3151000e+01	
   1.0440000e+00	  -5.1554000e+00	  -1.4596000e+00	   4.0689000e+00	   7.3446000e+00	   2.6574000e+00	  -3.7777000e+01	  -2.5650000e+00	  -8.4929000e-01	
   1.0460000e+00	  -4.0554000e+00	  -2.0596000e+00	   4.1689000e+00	   4.9446000e+00	   3.8574000e+00	  -2.5777000e+01	   1.3435000e+01	   3.1507000e+00	
   1.0480000e+00	  -1.0554000e+00	  -1.3596000e+00	   4.6689000e+00	   5.2446000e+00	   3.1574000e+00	  -2.5777000e+01	   9.4350000e+00	  -2.8493000e+00	
   1.0500000e+00	  -1.5536000e-01	  -2.5961000e-01	   4.4689000e+00	   3.3446000e+00	   1.4574000e+00	  -3.9777000e+01	  -1.0565000e+01	  -2.2849000e+01	
   1.0520000e+00	   2.0446000e+00	   3.4039000e-01	   5.2689000e+00	  -3.5543000e-01	   2.4574000e+00	  -3.3777000e+01	  -8.5650000e+00	  -2.6849000e+01	
   1.0540000e+00	   2.5446000e+00	  -5.9607000e-02	   5.7689000e+00	   6.4457000e-01	   4.4574000e+00	  -2.5777000e+01	  -2.0565000e+01	  -4.0849000e+01	
   1.0560000e+00	   1.7446000e+00	  -3.3596000e+00	   4.6689000e+00	   3.0446000e+00	   5.6574000e+00	  -9.7771000e+00	  -1.4565000e+01	  -3.4849000e+01	
   1.0580000e+00	   2.3446000e+00	  -2.5596000e+00	   5.0689000e+00	   3.1446000e+00	   5.8574000e+00	  -1.9777000e+01	  -2.8565000e+01	  -4.4849000e+01	
   1.0600000e+00	   2.3446000e+00	  -3.4596000e+00	   5.8689000e+00	   3.4446000e+00	   5.6574000e+00	  -3.7771000e+00	  -2.4565000e+01	  -2.8849000e+01	
   1.0620000e+00	   3.2446000e+00	  -3.6596000e+00	   7.3689000e+00	   2.5446000e+00	   5.6574000e+00	  -1.7771000e+00	  -2.6565000e+01	  -4.6849000e+01	
   1.0640000e+00	   3.7446000e+00	  -5.1596000e+00	   7.7689000e+00	   1.2446000e+00	   4.4574000e+00	  -1.7771000e+00	  -3.8565000e+01	  -5.6849000e+01	
   1.0660000e+00	   3.8446000e+00	  -6.1596000e+00	   7.2689000e+00	   1.6446000e+00	   5.6574000e+00	   2.4223000e+01	  -5.6500000e-01	  -2.2849000e+01	
   1.0680000e+00	   6.4446000e+00	  -4.4596000e+00	   5.9689000e+00	  -1.3554000e+00	   3.5574000e+00	   2.2229000e+00	  -2.8565000e+01	  -3.4849000e+01	
   1.0700000e+00	   5.6446000e+00	  -3.0596000e+00	   6.7689000e+00	   3.4457000e-01	   5.2574000e+00	   1.0223000e+01	  -1.8565000e+01	  -4.4849000e+01	
   1.0720000e+00	   3.5446000e+00	  -6.5596000e+00	   4.1689000e+00	  -1.3554000e+00	   3.8574000e+00	   2.2286000e-01	  -2.8565000e+01	  -5.0849000e+01	
   1.0740000e+00	   4.0446000e+00	  -2.8596000e+00	   6.5689000e+00	   2.4457000e-01	   2.9574000e+00	  -1.7771000e+00	  -1.0565000e+01	  -3.8849000e+01	
   1.0760000e+00	   3.7446000e+00	  -4.5961000e-01	   6.3689000e+00	   3.8446000e+00	   4.5574000e+00	  -5.7771000e+00	  -2.4565000e+01	  -3.4849000e+01	
   1.0780000e+00	   3.8446000e+00	  -2.9596000e+00	   4.3689000e+00	   6.5446000e+00	   6.8574000e+00	  -1.1777000e+01	  -2.0565000e+01	  -4.2849000e+01	
   1.0800000e+00	   5.4446000e+00	  -3.5596000e+00	   2.2689000e+00	   6.4446000e+00	   6.3574000e+00	  -2.1777000e+01	  -3.2565000e+01	  -5.4849000e+01	
   1.0820000e+00	   1.0445000e+01	   1.0404000e+00	  -7.3107000e-01	   6.1446000e+00	   8.8574000e+00	  -1.7777000e+01	  -2.2565000e+01	  -3.4849000e+01	
   1.0840000e+00	   1.8045000e+01	   8.8404000e+00	  -5.1311000e+00	   6.8446000e+00	   7.9574000e+00	  -5.7771000e+00	  -1.2565000e+01	  -2.2849000e+01	
   1.0860000e+00	   1.7445000e+01	   1.1140000e+01	  -1.0831000e+01	   7.3446000e+00	   3.1574000e+00	   2.2286000e-01	  -1.4565000e+01	  -3.6849000e+01	
   1.0880000e+00	   8.9446000e+00	   5.1404000e+00	  -1.0131000e+01	   6.5446000e+00	  -3.0426000e+00	   1.2223000e+01	  -2.5650000e+00	  -2.0849000e+01	
   1.0900000e+00	  -5.4554000e+00	  -7.9596000e+00	   1.2689000e+00	   3.6446000e+00	  -6.3426000e+00	   1.0223000e+01	  -5.6500000e-01	  -1.0849000e+01	
   1.0920000e+00	  -1.2655000e+01	  -1.5260000e+01	   8.7689000e+00	   1.9446000e+00	  -4.0426000e+00	  -7.7771000e+00	  -2.2565000e+01	  -1.2849000e+01	
   1.0940000e+00	  -7.3554000e+00	  -9.4596000e+00	   9.9689000e+00	   2.9446000e+00	   1.1574000e+00	   1.0223000e+01	   3.4350000e+00	   1.1507000e+00	
   1.0960000e+00	  -8.5536000e-01	  -4.2596000e+00	   7.4689000e+00	   1.8446000e+00	   4.4574000e+00	   1.8223000e+01	  -2.5650000e+00	  -6.8493000e+00	
   1.0980000e+00	   6.4464000e-01	  -7.5596000e+00	   6.8689000e+00	   3.5446000e+00	   7.7574000e+00	   2.0223000e+01	  -3.0565000e+01	  -3.0849000e+01	
   1.1000000e+00	  -1.8554000e+00	  -1.2960000e+01	   3.7689000e+00	   3.0446000e+00	   9.5574000e+00	   3.0223000e+01	  -4.4565000e+01	  -1.8849000e+01	
   1.1020000e+00	  -1.5554000e+00	  -1.3060000e+01	   6.7689000e+00	   7.8446000e+00	   1.2157000e+01	   7.0223000e+01	  -4.4565000e+01	  -8.8493000e+00	
   1.1040000e+00	  -2.7554000e+00	  -1.3260000e+01	   5.3689000e+00	   9.8446000e+00	   1.2157000e+01	   9.4223000e+01	   5.4350000e+00	   2.3151000e+01	
   1.1060000e+00	  -6.2554000e+00	  -9.1596000e+00	   9.6893000e-01	   1.2845000e+01	   5.1574000e+00	   4.6223000e+01	   6.7435000e+01	   9.1151000e+01	
   1.1080000e+00	  -1.2155000e+01	  -6.5961000e-01	  -7.9311000e+00	   1.4845000e+01	  -6.1426000e+00	  -4.7777000e+01	   1.9344000e+02	   2.5515000e+02	
   1.1100000e+00	  -2.3155000e+01	   1.4140000e+01	  -2.0831000e+01	   1.7445000e+01	  -2.4243000e+01	  -2.1378000e+02	   3.6344000e+02	   4.2515000e+02	
   1.1120000e+00	  -3.1055000e+01	   3.8240000e+01	  -3.2631000e+01	   2.0945000e+01	  -4.5143000e+01	  -3.6178000e+02	   5.5543000e+02	   6.0115000e+02	
   1.1140000e+00	  -3.7955000e+01	   5.8440000e+01	  -4.7331000e+01	   1.5445000e+01	  -6.4743000e+01	  -5.8178000e+02	   6.5143000e+02	   6.9515000e+02	
   1.1160000e+00	  -4.2655000e+01	   7.9140000e+01	  -5.9131000e+01	   1.2845000e+01	  -8.1843000e+01	  -7.2378000e+02	   7.6543000e+02	   7.8115000e+02	
   1.1180000e+00	  -4.3455000e+01	   9.5940000e+01	  -6.8831000e+01	   4.6446000e+00	  -9.2443000e+01	  -7.3178000e+02	   7.6543000e+02	   6.6315000e+02	
   1.1200000e+00	  -2.6655000e+01	   1.0014000e+02	  -6.0631000e+01	  -8.3554000e+00	  -8.0943000e+01	  -5.5778000e+02	   5.6743000e+02	   3.5515000e+02	
   1.1220000e+00	   2.2446000e+00	   8.9440000e+01	  -3.7331000e+01	  -1.9655000e+01	  -5.6043000e+01	  -3.3978000e+02	   2.5944000e+02	   5.1507000e+00	
   1.1240000e+00	   2.0645000e+01	   6.1640000e+01	  -1.5231000e+01	  -2.4155000e+01	  -2.7543000e+01	  -9.5777000e+01	  -4.5650000e+00	  -2.3085000e+02	
   1.1260000e+00	   3.4445000e+01	   3.4140000e+01	   3.0689000e+00	  -2.4655000e+01	  -4.2426000e+00	   7.4223000e+01	  -2.0256000e+02	  -3.6085000e+02	
   1.1280000e+00	   3.6845000e+01	   9.2404000e+00	   1.3969000e+01	  -1.7255000e+01	   1.2957000e+01	   1.7222000e+02	  -2.5456000e+02	  -3.3885000e+02	
   1.1300000e+00	   2.8745000e+01	  -1.3360000e+01	   1.9469000e+01	  -5.9554000e+00	   2.2957000e+01	   2.0422000e+02	  -2.4056000e+02	  -2.7085000e+02	
   1.1320000e+00	   1.6945000e+01	  -2.5160000e+01	   1.9169000e+01	   1.4457000e-01	   2.5457000e+01	   1.8222000e+02	  -2.2656000e+02	  -2.0685000e+02	
   1.1340000e+00	   1.1045000e+01	  -2.9460000e+01	   1.8369000e+01	   6.1446000e+00	   2.6257000e+01	   1.7622000e+02	  -2.2256000e+02	  -1.7285000e+02	
   1.1360000e+00	   7.9446000e+00	  -3.2860000e+01	   1.7969000e+01	   5.1446000e+00	   2.6657000e+01	   1.7822000e+02	  -1.9856000e+02	  -1.4885000e+02	
   1.1380000e+00	   4.6446000e+00	  -3.5960000e+01	   1.5869000e+01	   4.1446000e+00	   2.4557000e+01	   1.7022000e+02	  -1.8456000e+02	  -1.2285000e+02	
   1.1400000e+00	   6.0446000e+00	  -3.1360000e+01	   1.6469000e+01	   4.2446000e+00	   2.3757000e+01	   1.7222000e+02	  -1.8256000e+02	  -1.3485000e+02	
   1.1420000e+00	   5.1446000e+00	  -3.0660000e+01	   1.6769000e+01	   4.3446000e+00	   2.4557000e+01	   1.7822000e+02	  -1.5056000e+02	  -1.1685000e+02	
   1.1440000e+00	   6.4446000e+00	  -3.0660000e+01	   1.4969000e+01	   4.7446000e+00	   2.1057000e+01	   1.3622000e+02	  -1.7056000e+02	  -1.2485000e+02	
   1.1460000e+00	   5.0446000e+00	  -3.0360000e+01	   1.2969000e+01	   6.1446000e+00	   2.0257000e+01	   1.3022000e+02	  -1.5456000e+02	  -1.0685000e+02	
   1.1480000e+00	   6.2446000e+00	  -2.7260000e+01	   1.3669000e+01	   7.4446000e+00	   1.8057000e+01	   1.2022000e+02	  -1.4856000e+02	  -1.0685000e+02	
   1.1500000e+00	   4.8446000e+00	  -2.5360000e+01	   1.4169000e+01	   5.2446000e+00	   1.8857000e+01	   1.4422000e+02	  -1.1056000e+02	  -8.8849000e+01	
   1.1520000e+00	   4.3446000e+00	  -2.6860000e+01	   1.4969000e+01	   3.9446000e+00	   1.6857000e+01	   1.1422000e+02	  -1.3056000e+02	  -9.8849000e+01	
   1.1540000e+00	   4.6446000e+00	  -2.5960000e+01	   1.2069000e+01	   4.1446000e+00	   1.5157000e+01	   1.1622000e+02	  -1.0656000e+02	  -6.0849000e+01	
   1.1560000e+00	   2.7446000e+00	  -2.3060000e+01	   9.3689000e+00	   4.8446000e+00	   1.2157000e+01	   9.4223000e+01	  -1.0856000e+02	  -7.2849000e+01	
   1.1580000e+00	   3.9446000e+00	  -2.0160000e+01	   9.4689000e+00	   5.4446000e+00	   1.1857000e+01	   8.6223000e+01	  -1.0656000e+02	  -6.8849000e+01	
   1.1600000e+00	   2.0446000e+00	  -1.9660000e+01	   8.5689000e+00	   5.6446000e+00	   1.2057000e+01	   9.0223000e+01	  -6.8565000e+01	  -4.0849000e+01	
   1.1620000e+00	   2.0446000e+00	  -1.7760000e+01	   8.6689000e+00	   7.1446000e+00	   1.2057000e+01	   6.0223000e+01	  -9.2565000e+01	  -6.6849000e+01	
   1.1640000e+00	   7.4464000e-01	  -1.7760000e+01	   7.9689000e+00	   5.9446000e+00	   1.1557000e+01	   7.6223000e+01	  -6.6565000e+01	  -4.2849000e+01	
   1.1660000e+00	   5.4464000e-01	  -1.5560000e+01	   7.6689000e+00	   5.3446000e+00	   1.0257000e+01	   7.6223000e+01	  -6.2565000e+01	  -4.2849000e+01	
   1.1680000e+00	   3.2446000e+00	  -1.2860000e+01	   7.2689000e+00	   6.4446000e+00	   9.8574000e+00	   9.8223000e+01	  -3.4565000e+01	  -1.4849000e+01	
   1.1700000e+00	   4.0446000e+00	  -1.2760000e+01	   5.0689000e+00	   5.6446000e+00	   7.9574000e+00	   6.8223000e+01	  -5.6565000e+01	  -4.0849000e+01	
   1.1720000e+00	   2.2446000e+00	  -1.3260000e+01	   3.9689000e+00	   5.5446000e+00	   6.6574000e+00	   5.8223000e+01	  -5.0565000e+01	  -4.6849000e+01	
   1.1740000e+00	   2.7446000e+00	  -1.1260000e+01	   1.0689000e+00	   3.2446000e+00	   4.7574000e+00	   4.4223000e+01	  -4.8565000e+01	  -3.4849000e+01	
   1.1760000e+00	   4.2446000e+00	  -8.2596000e+00	   1.9689000e+00	   4.2446000e+00	   4.1574000e+00	   5.2223000e+01	  -3.4565000e+01	  -2.0849000e+01	
   1.1780000e+00	   2.5446000e+00	  -8.1596000e+00	   2.5689000e+00	   1.5446000e+00	   2.0574000e+00	   4.8223000e+01	  -2.8565000e+01	  -2.0849000e+01	
   1.1800000e+00	   2.7446000e+00	  -7.8596000e+00	   1.3689000e+00	   2.8446000e+00	   1.6574000e+00	   4.8223000e+01	  -2.4565000e+01	  -1.0849000e+01	
   1.1820000e+00	   3.7446000e+00	  -6.0596000e+00	   1.8689000e+00	   3.7446000e+00	   1.2574000e+00	   3.4223000e+01	  -3.2565000e+01	  -2.8849000e+01	
   1.1840000e+00	   3.3446000e+00	  -4.4596000e+00	   5.6893000e-01	   1.5446000e+00	   2.2574000e+00	   3.6223000e+01	  -2.8565000e+01	  -2.0849000e+01	
   1.1860000e+00	   3.4446000e+00	  -1.3596000e+00	   1.7689000e+00	   3.4446000e+00	   2.3574000e+00	   3.4223000e+01	  -1.4565000e+01	   1.1507000e+00	
   1.1880000e+00	   1.1446000e+00	  -1.8596000e+00	   2.4689000e+00	   1.3446000e+00	   2.2574000e+00	   3.0223000e+01	  -2.8565000e+01	  -1.0849000e+01	
   1.1900000e+00	   6.4464000e-01	  -3.4596000e+00	   1.7689000e+00	   1.4446000e+00	   1.6574000e+00	   3.2223000e+01	  -6.5650000e+00	  -8.4929000e-01	
   1.1920000e+00	   2.1446000e+00	  -2.4596000e+00	   4.6893000e-01	   1.0446000e+00	  -4.4257000e-01	   3.2223000e+01	  -1.4565000e+01	  -1.4849000e+01	
   1.1940000e+00	   3.7446000e+00	  -3.5961000e-01	  -1.1311000e+00	   2.1446000e+00	  -2.3426000e+00	   2.4223000e+01	  -1.4565000e+01	  -1.0849000e+01	
   1.1960000e+00	   2.4464000e-01	   2.4039000e-01	  -1.9311000e+00	   2.9446000e+00	  -2.5426000e+00	   3.4223000e+01	   1.4350000e+00	   1.7151000e+01	
   1.1980000e+00	  -9.5536000e-01	   4.4039000e-01	  -2.4311000e+00	   3.9446000e+00	  -1.8426000e+00	   2.6223000e+01	   7.4350000e+00	   1.5151000e+01	
   1.2000000e+00	   1.8446000e+00	  -1.0596000e+00	  -1.9311000e+00	   1.8446000e+00	  -3.0426000e+00	  -1.7771000e+00	  -1.0565000e+01	   9.1507000e+00	
   1.2020000e+00	   8.4464000e-01	   4.0393000e-02	  -9.3107000e-01	   8.4457000e-01	  -2.7426000e+00	   2.2223000e+01	   7.4350000e+00	   1.3151000e+01	
   1.2040000e+00	  -9.5536000e-01	  -2.4596000e+00	  -2.0311000e+00	  -9.5543000e-01	  -4.6426000e+00	   6.2229000e+00	   1.5435000e+01	   3.1151000e+01	
   1.2060000e+00	  -3.5536000e-01	  -5.9607000e-02	  -2.3107000e-01	   1.6446000e+00	  -2.7426000e+00	   1.2223000e+01	  -6.5650000e+00	  -2.2849000e+01	
   1.2080000e+00	  -3.5554000e+00	  -2.3596000e+00	  -1.6311000e+00	   8.4457000e-01	  -3.2426000e+00	   1.0223000e+01	   2.1435000e+01	   1.3151000e+01	
   1.2100000e+00	  -1.6554000e+00	  -2.4596000e+00	  -1.8311000e+00	  -6.5543000e-01	  -3.9426000e+00	   2.2286000e-01	   7.4350000e+00	   1.1507000e+00	
   1.2120000e+00	  -2.0554000e+00	  -3.1596000e+00	  -1.3311000e+00	   3.5446000e+00	  -2.4426000e+00	   1.4223000e+01	   3.3435000e+01	   1.9151000e+01	
   1.2140000e+00	  -2.8554000e+00	  -2.0596000e+00	  -4.5311000e+00	   5.1446000e+00	  -3.6426000e+00	  -5.7771000e+00	   2.9435000e+01	   2.7151000e+01	
   1.2160000e+00	  -8.5536000e-01	   1.5404000e+00	  -2.0311000e+00	   5.9446000e+00	  -3.3426000e+00	  -1.7771000e+00	   2.3435000e+01	   1.7151000e+01	
   1.2180000e+00	  -1.8554000e+00	   1.7404000e+00	  -1.4311000e+00	   6.1446000e+00	  -3.9426000e+00	  -7.7771000e+00	   2.7435000e+01	   2.5151000e+01	
   1.2200000e+00	  -2.4554000e+00	   1.9404000e+00	  -5.3107000e-01	   6.8446000e+00	  -4.3426000e+00	  -1.9777000e+01	   3.7435000e+01	   3.1151000e+01	
   1.2220000e+00	  -2.7554000e+00	   3.4039000e-01	   1.2689000e+00	   7.0446000e+00	  -4.8426000e+00	  -1.9777000e+01	   3.7435000e+01	   4.7151000e+01	
   1.2240000e+00	  -2.8554000e+00	   2.8404000e+00	   4.6893000e-01	   4.4446000e+00	  -5.2426000e+00	  -2.9777000e+01	   2.9435000e+01	   3.3151000e+01	
   1.2260000e+00	  -4.0554000e+00	   2.7404000e+00	   3.6893000e-01	   4.4446000e+00	  -4.6426000e+00	  -1.5777000e+01	   4.9435000e+01	   3.7151000e+01	
   1.2280000e+00	  -4.0554000e+00	   1.3404000e+00	  -2.2311000e+00	   1.9446000e+00	  -5.8426000e+00	  -3.1777000e+01	   2.9435000e+01	   3.3151000e+01	
   1.2300000e+00	  -3.9554000e+00	   1.0404000e+00	  -2.4311000e+00	   1.4446000e+00	  -5.7426000e+00	  -2.1777000e+01	   3.9435000e+01	   1.5151000e+01	
   1.2320000e+00	  -3.2554000e+00	   1.8404000e+00	  -3.2311000e+00	   2.9446000e+00	  -5.4426000e+00	  -2.9777000e+01	   3.5435000e+01	   2.5151000e+01	
   1.2340000e+00	  -1.0554000e+00	   3.0404000e+00	  -5.4311000e+00	   4.5446000e+00	  -4.3426000e+00	  -3.5777000e+01	   3.3435000e+01	   2.7151000e+01	
   1.2360000e+00	  -3.0554000e+00	   3.9404000e+00	  -4.8311000e+00	   4.8446000e+00	  -2.2426000e+00	  -2.5777000e+01	   3.9435000e+01	   3.9151000e+01	
   1.2380000e+00	  -3.5554000e+00	   4.9404000e+00	  -3.1311000e+00	   4.9446000e+00	  -2.0426000e+00	  -2.5777000e+01	   4.9435000e+01	   3.3151000e+01	
   1.2400000e+00	  -5.8554000e+00	   3.5404000e+00	  -2.8311000e+00	   3.1446000e+00	  -2.1426000e+00	  -3.7777000e+01	   2.9435000e+01	   1.7151000e+01	
   1.2420000e+00	  -5.0554000e+00	   3.6404000e+00	  -3.7311000e+00	   4.1446000e+00	  -1.4426000e+00	  -3.5777000e+01	   4.5435000e+01	   2.5151000e+01	
   1.2440000e+00	  -5.5554000e+00	   2.6404000e+00	  -2.9311000e+00	   3.1446000e+00	  -8.4257000e-01	  -3.7777000e+01	   2.9435000e+01	   3.9151000e+01	
   1.2460000e+00	  -4.6554000e+00	   2.4404000e+00	  -3.1311000e+00	   3.8446000e+00	  -3.1426000e+00	  -4.7777000e+01	   2.7435000e+01	   3.9151000e+01	
   1.2480000e+00	  -2.6554000e+00	   2.6404000e+00	  -4.1311000e+00	   6.2446000e+00	  -2.6426000e+00	  -1.7777000e+01	   3.7435000e+01	   3.3151000e+01	
   1.2500000e+00	  -2.5554000e+00	   1.4404000e+00	  -2.3311000e+00	   5.0446000e+00	  -2.2426000e+00	  -1.3777000e+01	   3.3435000e+01	   3.7151000e+01	
   1.2520000e+00	  -2.8554000e+00	   1.7404000e+00	  -2.4311000e+00	   4.8446000e+00	  -8.4257000e-01	  -5.7771000e+00	   2.5435000e+01	   2.5151000e+01	
   1.2540000e+00	  -4.3554000e+00	   6.4039000e-01	  -3.5311000e+00	   3.7446000e+00	   4.5743000e-01	  -9.7771000e+00	   1.9435000e+01	   2.9151000e+01	
   1.2560000e+00	  -2.6554000e+00	   4.0393000e-02	  -4.0311000e+00	   2.2446000e+00	   1.5743000e-01	  -2.3777000e+01	  -2.5650000e+00	   1.3151000e+01	
   1.2580000e+00	  -3.2554000e+00	   4.0393000e-02	  -1.2311000e+00	   1.7446000e+00	   1.6574000e+00	  -5.7771000e+00	   7.4350000e+00	   3.1151000e+01	
   1.2600000e+00	  -7.5536000e-01	  -1.6596000e+00	   1.0689000e+00	   1.4446000e+00	   4.0574000e+00	   1.0223000e+01	   5.4350000e+00	   1.1151000e+01	
   1.2620000e+00	  -8.5536000e-01	  -3.6596000e+00	   2.5689000e+00	   4.0446000e+00	   7.1574000e+00	   2.8223000e+01	  -2.5650000e+00	   1.5151000e+01	
   1.2640000e+00	  -2.0554000e+00	  -3.9596000e+00	   3.3689000e+00	   4.0446000e+00	   8.7574000e+00	   2.4223000e+01	  -2.0565000e+01	  -4.8493000e+00	
   1.2660000e+00	  -2.1554000e+00	  -5.8596000e+00	   2.2689000e+00	   5.4446000e+00	   8.1574000e+00	   2.0223000e+01	  -3.0565000e+01	  -2.4849000e+01	
   1.2680000e+00	  -5.5357000e-02	  -6.1596000e+00	   4.4689000e+00	   6.0446000e+00	   9.0574000e+00	   2.8223000e+01	  -2.8565000e+01	  -3.4849000e+01	
   1.2700000e+00	   2.2446000e+00	  -7.6596000e+00	   6.4689000e+00	   5.6446000e+00	   1.0557000e+01	   2.6223000e+01	  -5.2565000e+01	  -4.6849000e+01	
   1.2720000e+00	   2.7446000e+00	  -7.2596000e+00	   5.3689000e+00	   4.2446000e+00	   1.1457000e+01	   3.4223000e+01	  -4.4565000e+01	  -3.8849000e+01	
   1.2740000e+00	   3.7446000e+00	  -6.6596000e+00	   4.6689000e+00	   4.2446000e+00	   1.0157000e+01	   2.6223000e+01	  -5.8565000e+01	  -5.8849000e+01	
   1.2760000e+00	   2.1446000e+00	  -8.0596000e+00	   3.9689000e+00	   9.4457000e-01	   9.2574000e+00	   4.0223000e+01	  -5.2565000e+01	  -5.0849000e+01	
   1.2780000e+00	   4.4446000e+00	  -8.9596000e+00	   4.9689000e+00	   4.4457000e-01	   8.8574000e+00	   4.4223000e+01	  -6.2565000e+01	  -6.8849000e+01	
   1.2800000e+00	   3.7446000e+00	  -8.7596000e+00	   4.7689000e+00	  -8.5543000e-01	   7.3574000e+00	   1.8223000e+01	  -7.2565000e+01	  -7.2849000e+01	
   1.2820000e+00	   6.4446000e+00	  -7.2596000e+00	   6.5689000e+00	  -6.5543000e-01	   8.5574000e+00	   3.6223000e+01	  -7.0565000e+01	  -8.8849000e+01	
   1.2840000e+00	   3.6446000e+00	  -9.1596000e+00	   5.4689000e+00	  -7.5543000e-01	   7.5574000e+00	   3.8223000e+01	  -5.4565000e+01	  -8.0849000e+01	
   1.2860000e+00	   4.4446000e+00	  -6.4596000e+00	   6.1689000e+00	  -8.5543000e-01	   7.1574000e+00	   3.6223000e+01	  -5.0565000e+01	  -6.8849000e+01	
   1.2880000e+00	   3.8446000e+00	  -5.9596000e+00	   6.3689000e+00	  -4.5543000e-01	   5.6574000e+00	   1.8223000e+01	  -6.6565000e+01	  -7.8849000e+01	
   1.2900000e+00	   2.9446000e+00	  -7.5596000e+00	   6.5689000e+00	   6.4457000e-01	   5.1574000e+00	   2.4223000e+01	  -5.8565000e+01	  -6.6849000e+01	
   1.2920000e+00	   4.0446000e+00	  -5.5596000e+00	   5.0689000e+00	   1.6446000e+00	   4.9574000e+00	   2.2223000e+01	  -5.0565000e+01	  -5.2849000e+01	
   1.2940000e+00	   4.0446000e+00	  -4.0596000e+00	   3.6689000e+00	   2.5446000e+00	   4.5574000e+00	   2.8223000e+01	  -3.0565000e+01	  -3.0849000e+01	
   1.2960000e+00	   5.7446000e+00	  -3.6596000e+00	   6.0689000e+00	   3.7446000e+00	   3.7574000e+00	   2.0223000e+01	  -5.8565000e+01	  -7.4849000e+01	
   1.2980000e+00	   1.7446000e+00	  -4.9596000e+00	   6.4689000e+00	   4.0446000e+00	   4.4574000e+00	   4.4223000e+01	  -1.0565000e+01	  -2.4849000e+01	
   1.3000000e+00	   9.4464000e-01	  -5.1596000e+00	   4.7689000e+00	   3.3446000e+00	   1.8574000e+00	   1.2223000e+01	  -3.8565000e+01	  -4.8849000e+01	
   1.3020000e+00	   5.4464000e-01	  -5.6596000e+00	   5.5689000e+00	   5.4446000e+00	   2.9574000e+00	   2.8223000e+01	  -2.6565000e+01	  -4.2849000e+01	
   1.3040000e+00	   3.4464000e-01	  -5.7596000e+00	   3.8689000e+00	   6.2446000e+00	   3.4574000e+00	   8.2229000e+00	  -2.4565000e+01	  -2.8849000e+01	
   1.3060000e+00	   3.0446000e+00	  -4.8596000e+00	   3.8689000e+00	   7.9446000e+00	   6.4574000e+00	   1.6223000e+01	  -2.8565000e+01	  -3.4849000e+01	
   1.3080000e+00	   4.6446000e+00	  -2.4596000e+00	  -3.1071000e-02	   7.8446000e+00	   8.6574000e+00	  -1.7771000e+00	  -2.6565000e+01	  -3.2849000e+01	
   1.3100000e+00	   1.3445000e+01	   6.4404000e+00	  -4.6311000e+00	   9.2446000e+00	   1.1457000e+01	  -1.7771000e+00	  -1.8565000e+01	  -3.0849000e+01	
   1.3120000e+00	   1.5245000e+01	   9.9404000e+00	  -1.0731000e+01	   7.3446000e+00	   6.9574000e+00	  -1.1777000e+01	  -2.4565000e+01	  -3.6849000e+01	
   1.3140000e+00	   9.4446000e+00	   6.5404000e+00	  -1.2831000e+01	   6.1446000e+00	   6.5743000e-01	   2.2229000e+00	  -1.6565000e+01	  -1.8849000e+01	
   1.3160000e+00	  -4.7554000e+00	  -4.4596000e+00	  -4.8311000e+00	   4.9446000e+00	  -4.3426000e+00	   6.2229000e+00	  -6.5650000e+00	   5.1507000e+00	
   1.3180000e+00	  -1.7655000e+01	  -1.4560000e+01	   6.6689000e+00	   1.9446000e+00	  -4.1426000e+00	  -2.1777000e+01	  -3.4565000e+01	  -2.6849000e+01	
   1.3200000e+00	  -1.6655000e+01	  -1.5360000e+01	   1.0469000e+01	  -1.5543000e-01	   7.5743000e-01	  -3.7771000e+00	  -2.6565000e+01	  -4.2849000e+01	
   1.3220000e+00	  -1.1355000e+01	  -1.1160000e+01	   8.3689000e+00	   1.5446000e+00	   4.2574000e+00	  -1.7771000e+00	  -1.4565000e+01	  -3.4849000e+01	
   1.3240000e+00	  -5.7554000e+00	  -7.8596000e+00	   6.1689000e+00	   1.2446000e+00	   5.5574000e+00	   1.0223000e+01	  -5.6500000e-01	  -8.8493000e+00	
   1.3260000e+00	  -4.8554000e+00	  -6.6596000e+00	   6.0689000e+00	   2.8446000e+00	   4.8574000e+00	   1.2223000e+01	  -2.5650000e+00	  -8.4929000e-01	
   1.3280000e+00	  -5.3554000e+00	  -7.2596000e+00	   4.1689000e+00	   9.4457000e-01	   3.5574000e+00	  -9.7771000e+00	  -2.8565000e+01	  -2.0849000e+01	
   1.3300000e+00	  -6.1554000e+00	  -4.6596000e+00	   3.7689000e+00	   9.4457000e-01	   3.8574000e+00	  -2.3777000e+01	  -3.2565000e+01	  -3.4849000e+01	
   1.3320000e+00	  -6.2554000e+00	  -4.7596000e+00	   3.7689000e+00	   1.2446000e+00	   4.7574000e+00	  -3.7771000e+00	  -6.5650000e+00	  -4.8493000e+00	
   1.3340000e+00	  -4.4554000e+00	  -5.2596000e+00	   4.5689000e+00	   2.4446000e+00	   5.1574000e+00	  -7.7771000e+00	  -4.5650000e+00	   1.1507000e+00	
   1.3360000e+00	  -6.5554000e+00	  -7.5596000e+00	   4.9689000e+00	   2.2446000e+00	   4.6574000e+00	  -2.1777000e+01	  -2.4565000e+01	  -8.8493000e+00	
   1.3380000e+00	  -7.9554000e+00	  -6.7596000e+00	   4.4689000e+00	   1.2446000e+00	   4.5574000e+00	  -1.7771000e+00	  -4.5650000e+00	  -8.8493000e+00	
   1.3400000e+00	  -5.2554000e+00	  -5.5596000e+00	   4.4689000e+00	   1.2446000e+00	   3.8574000e+00	  -9.7771000e+00	  -2.4565000e+01	  -1.8849000e+01	
   1.3420000e+00	  -4.7554000e+00	  -6.5596000e+00	   4.9689000e+00	   1.9446000e+00	   4.5574000e+00	  -1.7771000e+00	  -2.0565000e+01	  -2.0849000e+01	
   1.3440000e+00	  -3.3554000e+00	  -7.5596000e+00	   3.4689000e+00	   3.7446000e+00	   4.5574000e+00	   8.2229000e+00	   1.4350000e+00	  -6.8493000e+00	
   1.3460000e+00	  -2.4554000e+00	  -4.9596000e+00	   2.3689000e+00	   2.0446000e+00	   3.6574000e+00	  -9.7771000e+00	  -1.8565000e+01	  -2.0849000e+01	
   1.3480000e+00	  -3.7554000e+00	  -2.3596000e+00	   3.1689000e+00	   2.1446000e+00	   3.2574000e+00	   8.2229000e+00	   7.4350000e+00	  -1.0849000e+01	
   1.3500000e+00	  -4.2554000e+00	  -4.3596000e+00	   2.9689000e+00	   1.2446000e+00	   3.5574000e+00	  -1.5777000e+01	  -1.2565000e+01	  -1.8849000e+01	
   1.3520000e+00	  -4.2554000e+00	  -3.3596000e+00	   3.8689000e+00	   3.8446000e+00	   4.6574000e+00	  -1.5777000e+01	  -1.6565000e+01	  -1.4849000e+01	
   1.3540000e+00	  -3.7554000e+00	  -3.1596000e+00	   2.8689000e+00	   6.5446000e+00	   7.9574000e+00	   1.0223000e+01	   5.4350000e+00	   1.1507000e+00	
   1.3560000e+00	  -3.5554000e+00	  -4.5596000e+00	   2.8689000e+00	   6.2446000e+00	   6.9574000e+00	  -1.7777000e+01	  -2.2565000e+01	  -8.8493000e+00	
   1.3580000e+00	  -3.2554000e+00	  -5.8596000e+00	   4.0689000e+00	   6.0446000e+00	   7.5574000e+00	   4.2229000e+00	   3.4350000e+00	   3.1507000e+00	
   1.3600000e+00	  -4.2554000e+00	  -4.3596000e+00	   4.9689000e+00	   4.3446000e+00	   6.3574000e+00	   2.2229000e+00	   7.4350000e+00	   3.1507000e+00	
   1.3620000e+00	  -4.2554000e+00	  -1.6596000e+00	   5.7689000e+00	   4.3446000e+00	   6.6574000e+00	   2.0223000e+01	   3.4350000e+00	  -8.8493000e+00	
   1.3640000e+00	  -5.2554000e+00	  -3.0596000e+00	   2.9689000e+00	   4.1446000e+00	   4.3574000e+00	   2.0223000e+01	  -5.6500000e-01	  -4.8493000e+00	
   1.3660000e+00	  -5.9554000e+00	  -4.3596000e+00	   2.6893000e-01	   7.0446000e+00	   1.9574000e+00	   8.2229000e+00	  -2.5650000e+00	  -4.8493000e+00	
   1.3680000e+00	  -7.5554000e+00	  -3.7596000e+00	  -3.3107000e-01	   6.7446000e+00	   2.1574000e+00	   2.4223000e+01	   2.9435000e+01	   2.7151000e+01	
   1.3700000e+00	  -8.7554000e+00	  -3.8596000e+00	  -9.3107000e-01	   4.1446000e+00	   2.5743000e-01	   1.2223000e+01	   1.3435000e+01	   2.9151000e+01	
   1.3720000e+00	  -9.9554000e+00	  -2.5596000e+00	  -1.1311000e+00	   4.5446000e+00	  -1.7426000e+00	   1.4223000e+01	   2.1435000e+01	   3.1151000e+01	
   1.3740000e+00	  -8.4554000e+00	   4.4039000e-01	  -2.6311000e+00	   2.6446000e+00	  -2.2426000e+00	   1.0223000e+01	   2.3435000e+01	   1.9151000e+01	
   1.3760000e+00	  -7.1554000e+00	   3.4039000e-01	  -1.6311000e+00	   3.5446000e+00	  -2.7426000e+00	   1.0223000e+01	   3.5435000e+01	   3.3151000e+01	
   1.3780000e+00	  -6.7554000e+00	   7.4039000e-01	  -1.4311000e+00	   1.4446000e+00	  -3.9426000e+00	   2.2229000e+00	   3.7435000e+01	   2.5151000e+01	
   1.3800000e+00	  -3.3554000e+00	   2.8404000e+00	  -8.3107000e-01	   8.4457000e-01	  -3.7426000e+00	   1.8223000e+01	   4.5435000e+01	   4.3151000e+01	
   1.3820000e+00	  -4.4554000e+00	   2.3404000e+00	  -2.7311000e+00	   1.4457000e-01	  -5.3426000e+00	   6.2229000e+00	   3.5435000e+01	   3.9151000e+01	
   1.3840000e+00	  -2.9554000e+00	   2.7404000e+00	  -1.8311000e+00	   1.4446000e+00	  -3.3426000e+00	  -2.1777000e+01	   9.4350000e+00	   1.3151000e+01	
   1.3860000e+00	  -9.5536000e-01	   6.4039000e-01	   1.6893000e-01	   1.0446000e+00	  -9.4257000e-01	  -3.7777000e+01	  -2.5650000e+00	  -4.8493000e+00	
   1.3880000e+00	   6.4464000e-01	   1.0404000e+00	   8.6893000e-01	   1.4457000e-01	  -1.2426000e+00	  -4.3777000e+01	   3.4350000e+00	   1.5151000e+01	
   1.3900000e+00	   1.7446000e+00	   2.4404000e+00	   4.6893000e-01	  -3.4554000e+00	  -2.0426000e+00	  -4.1777000e+01	  -1.0565000e+01	  -6.8493000e+00	
   1.3920000e+00	   1.4446000e+00	   1.7404000e+00	   5.6893000e-01	  -1.5554000e+00	  -1.5426000e+00	  -3.9777000e+01	  -2.0565000e+01	  -2.6849000e+01	
   1.3940000e+00	   4.4643000e-02	   1.0404000e+00	   6.6893000e-01	  -4.0554000e+00	  -1.6426000e+00	  -4.1777000e+01	  -1.2565000e+01	  -2.6849000e+01	
   1.3960000e+00	   1.2446000e+00	   1.4404000e+00	   2.2689000e+00	  -5.6554000e+00	  -5.4257000e-01	  -2.1777000e+01	  -5.6500000e-01	  -2.2849000e+01	
   1.3980000e+00	   1.2446000e+00	   2.0404000e+00	   1.2689000e+00	  -6.5554000e+00	  -7.4257000e-01	  -2.9777000e+01	  -1.2565000e+01	  -2.6849000e+01	
   1.4000000e+00	   2.7446000e+00	   2.6404000e+00	   9.6893000e-01	  -4.7554000e+00	  -1.4257000e-01	  -2.1777000e+01	  -2.6565000e+01	  -3.6849000e+01	
   1.4020000e+00	   5.7446000e+00	   2.8404000e+00	   1.9689000e+00	  -3.8554000e+00	   2.5743000e-01	  -2.9777000e+01	  -3.2565000e+01	  -4.0849000e+01	
   1.4040000e+00	   5.7446000e+00	  -5.5961000e-01	   1.9689000e+00	  -3.9554000e+00	   1.4574000e+00	  -2.5777000e+01	  -3.2565000e+01	  -3.4849000e+01	
   1.4060000e+00	   4.1446000e+00	  -3.1596000e+00	   2.9689000e+00	  -2.4554000e+00	   2.1574000e+00	  -5.7771000e+00	  -2.2565000e+01	  -2.6849000e+01	
   1.4080000e+00	   7.0446000e+00	  -1.1596000e+00	   3.6689000e+00	  -4.0554000e+00	   1.9574000e+00	  -7.7771000e+00	  -3.0565000e+01	  -4.2849000e+01	
   1.4100000e+00	   5.4446000e+00	  -1.0596000e+00	   3.4689000e+00	  -6.2554000e+00	   1.8574000e+00	  -1.7771000e+00	  -2.8565000e+01	  -4.0849000e+01	
   1.4120000e+00	   4.3446000e+00	  -3.1596000e+00	   1.6689000e+00	  -7.7554000e+00	  -2.4257000e-01	  -2.1777000e+01	  -4.0565000e+01	  -5.2849000e+01	
   1.4140000e+00	   4.3446000e+00	  -8.5961000e-01	   2.7689000e+00	  -7.9554000e+00	   5.7429000e-02	  -7.7771000e+00	  -3.0565000e+01	  -5.0849000e+01	
   1.4160000e+00	   4.1446000e+00	  -5.5961000e-01	   2.5689000e+00	  -8.8554000e+00	  -7.4257000e-01	  -1.3777000e+01	  -3.0565000e+01	  -3.4849000e+01	
   1.4180000e+00	   6.3446000e+00	  -6.5961000e-01	   3.4689000e+00	  -7.2554000e+00	  -2.4257000e-01	  -1.1777000e+01	  -2.8565000e+01	  -3.6849000e+01	
   1.4200000e+00	   4.1446000e+00	  -3.5961000e-01	   3.0689000e+00	  -6.9554000e+00	  -1.2426000e+00	   4.2229000e+00	  -2.2565000e+01	  -2.0849000e+01	
   1.4220000e+00	   6.7446000e+00	   2.2404000e+00	   2.6689000e+00	  -5.6554000e+00	  -2.1426000e+00	  -9.7771000e+00	  -3.4565000e+01	  -2.6849000e+01	
   1.4240000e+00	   4.7446000e+00	   4.4039000e-01	   6.6893000e-01	  -5.7554000e+00	  -1.0426000e+00	   2.2286000e-01	  -2.0565000e+01	  -2.4849000e+01	
   1.4260000e+00	   3.3446000e+00	   1.4039000e-01	   9.6893000e-01	  -5.9554000e+00	  -3.4257000e-01	   2.2286000e-01	  -2.0565000e+01	  -2.6849000e+01	
   1.4280000e+00	   3.7446000e+00	  -1.6596000e+00	   1.3689000e+00	  -6.8554000e+00	  -7.4257000e-01	  -1.7777000e+01	  -4.0565000e+01	  -4.0849000e+01	
   1.4300000e+00	   1.9446000e+00	  -1.9596000e+00	   1.8689000e+00	  -5.8554000e+00	  -1.6426000e+00	  -1.1777000e+01	  -2.8565000e+01	  -1.8849000e+01	
   1.4320000e+00	   3.5446000e+00	  -6.5961000e-01	   2.2689000e+00	  -3.3554000e+00	  -1.7426000e+00	  -7.7771000e+00	  -2.0565000e+01	  -1.8849000e+01	
   1.4340000e+00	   4.9446000e+00	   1.8404000e+00	   2.3689000e+00	  -2.1554000e+00	   2.5743000e-01	   1.0223000e+01	  -2.5650000e+00	  -4.8493000e+00	
   1.4360000e+00	   4.8446000e+00	   1.0404000e+00	   5.6893000e-01	  -2.2554000e+00	  -9.4257000e-01	   4.2229000e+00	   5.4350000e+00	   1.5151000e+01	
   1.4380000e+00	   2.7446000e+00	   5.4039000e-01	   1.9689000e+00	  -3.5554000e+00	  -2.1426000e+00	  -1.9777000e+01	  -3.2565000e+01	  -2.8849000e+01	
   1.4400000e+00	   8.4464000e-01	  -1.4596000e+00	   2.6689000e+00	  -4.6554000e+00	  -3.4257000e-01	   2.2286000e-01	  -3.6565000e+01	  -2.8849000e+01	
   1.4420000e+00	  -6.5536000e-01	  -5.3596000e+00	   4.1689000e+00	  -3.2554000e+00	   3.9574000e+00	   2.0223000e+01	  -3.4565000e+01	  -1.0849000e+01	
   1.4440000e+00	  -1.8554000e+00	  -9.0596000e+00	   7.2689000e+00	  -1.5543000e-01	   8.4574000e+00	   5.4223000e+01	  -4.2565000e+01	   5.1507000e+00	
   1.4460000e+00	  -2.9554000e+00	  -1.0660000e+01	   6.4689000e+00	   2.3446000e+00	   9.5574000e+00	   7.4223000e+01	  -3.4565000e+01	   1.3151000e+01	
   1.4480000e+00	  -4.0554000e+00	  -1.0860000e+01	   4.7689000e+00	   2.9446000e+00	   6.1574000e+00	   6.6223000e+01	   2.1435000e+01	   4.9151000e+01	
   1.4500000e+00	  -7.6554000e+00	  -4.5596000e+00	  -3.0311000e+00	   2.4446000e+00	  -4.2426000e+00	   2.2229000e+00	   1.1943000e+02	   1.5315000e+02	
   1.4520000e+00	  -1.4255000e+01	   9.0404000e+00	  -1.1531000e+01	   5.9446000e+00	  -1.6643000e+01	  -9.1777000e+01	   2.6144000e+02	   3.1515000e+02	
   1.4540000e+00	  -2.5155000e+01	   2.5240000e+01	  -2.6431000e+01	   5.0446000e+00	  -3.6043000e+01	  -2.6978000e+02	   4.3543000e+02	   4.7115000e+02	
   1.4560000e+00	  -3.0255000e+01	   5.3040000e+01	  -4.0331000e+01	   4.0446000e+00	  -5.6243000e+01	  -4.6578000e+02	   5.6743000e+02	   5.9915000e+02	
   1.4580000e+00	  -3.6155000e+01	   7.4140000e+01	  -5.4631000e+01	   2.6446000e+00	  -7.3043000e+01	  -6.4178000e+02	   7.0743000e+02	   7.3515000e+02	
   1.4600000e+00	  -3.9555000e+01	   9.3240000e+01	  -6.4531000e+01	   1.3446000e+00	  -8.7343000e+01	  -7.4378000e+02	   7.7143000e+02	   7.3515000e+02	
   1.4620000e+00	  -3.1955000e+01	   1.0634000e+02	  -6.3531000e+01	  -1.0355000e+01	  -8.6643000e+01	  -6.6178000e+02	   6.6143000e+02	   5.0715000e+02	
   1.4640000e+00	  -6.8554000e+00	   1.0104000e+02	  -4.7131000e+01	  -2.4655000e+01	  -6.8243000e+01	  -4.4978000e+02	   3.9544000e+02	   1.4715000e+02	
   1.4660000e+00	   1.7245000e+01	   7.9940000e+01	  -2.6231000e+01	  -3.3255000e+01	  -4.1643000e+01	  -2.2178000e+02	   9.5435000e+01	  -1.4885000e+02	
   1.4680000e+00	   3.2745000e+01	   5.1640000e+01	  -3.5311000e+00	  -3.6755000e+01	  -1.4543000e+01	  -1.3777000e+01	  -1.3456000e+02	  -3.3685000e+02	
   1.4700000e+00	   3.9145000e+01	   2.3340000e+01	   8.2689000e+00	  -3.3055000e+01	   5.8574000e+00	   1.3622000e+02	  -2.3256000e+02	  -3.7485000e+02	
   1.4720000e+00	   3.6045000e+01	   1.5404000e+00	   1.4169000e+01	  -2.1855000e+01	   1.6857000e+01	   1.5822000e+02	  -2.8456000e+02	  -3.3285000e+02	
   1.4740000e+00	   2.3645000e+01	  -1.5560000e+01	   1.8069000e+01	  -1.0755000e+01	   2.4757000e+01	   1.8422000e+02	  -2.5056000e+02	  -2.3485000e+02	
   1.4760000e+00	   1.2845000e+01	  -2.5960000e+01	   1.6869000e+01	  -6.6554000e+00	   2.6157000e+01	   1.5822000e+02	  -2.3256000e+02	  -1.6485000e+02	
   1.4780000e+00	   8.6446000e+00	  -3.0660000e+01	   1.8369000e+01	  -3.6554000e+00	   2.7157000e+01	   1.5222000e+02	  -2.1056000e+02	  -1.3685000e+02	
   1.4800000e+00	   5.8446000e+00	  -3.2560000e+01	   1.7569000e+01	  -5.5543000e-01	   2.7557000e+01	   1.6222000e+02	  -1.8856000e+02	  -1.2485000e+02	
   1.4820000e+00	   4.3446000e+00	  -3.1560000e+01	   1.6169000e+01	  -3.1554000e+00	   2.4157000e+01	   1.4822000e+02	  -1.9056000e+02	  -1.3285000e+02	
   1.4840000e+00	   4.6446000e+00	  -2.8060000e+01	   1.7369000e+01	  -3.4554000e+00	   2.4157000e+01	   1.6222000e+02	  -1.9256000e+02	  -1.3685000e+02	
   1.4860000e+00	   4.7446000e+00	  -2.7460000e+01	   1.4869000e+01	  -3.0554000e+00	   2.2157000e+01	   1.5422000e+02	  -1.7256000e+02	  -1.0085000e+02	
   1.4880000e+00	   4.1446000e+00	  -2.6360000e+01	   1.5269000e+01	  -1.8554000e+00	   2.1057000e+01	   1.3622000e+02	  -1.7056000e+02	  -1.0685000e+02	
   1.4900000e+00	   5.8446000e+00	  -2.6160000e+01	   1.5369000e+01	   2.4457000e-01	   2.0057000e+01	   1.3622000e+02	  -1.6056000e+02	  -1.0285000e+02	
   1.4920000e+00	   2.9446000e+00	  -2.5860000e+01	   1.4869000e+01	   1.4446000e+00	   1.9157000e+01	   1.3222000e+02	  -1.2656000e+02	  -8.8849000e+01	
   1.4940000e+00	   2.4464000e-01	  -2.6060000e+01	   1.3769000e+01	  -6.5543000e-01	   1.6357000e+01	   9.4223000e+01	  -1.5056000e+02	  -1.0085000e+02	
   1.4960000e+00	   4.4464000e-01	  -2.3660000e+01	   1.3469000e+01	  -1.7554000e+00	   1.3957000e+01	   1.0422000e+02	  -1.2656000e+02	  -7.4849000e+01	
   1.4980000e+00	   1.4464000e-01	  -2.2660000e+01	   1.2369000e+01	  -1.9554000e+00	   1.2357000e+01	   1.0422000e+02	  -1.1256000e+02	  -6.2849000e+01	
   1.5000000e+00	  -1.5536000e-01	  -1.9960000e+01	   1.1769000e+01	  -1.8554000e+00	   1.0857000e+01	   9.2223000e+01	  -1.1456000e+02	  -5.0849000e+01	
   1.5020000e+00	   2.6446000e+00	  -1.5960000e+01	   1.0269000e+01	  -2.0554000e+00	   1.0357000e+01	   8.6223000e+01	  -1.0856000e+02	  -6.6849000e+01	
   1.5040000e+00	   1.5446000e+00	  -1.6160000e+01	   8.2689000e+00	  -1.8554000e+00	   1.1357000e+01	   9.2223000e+01	  -7.8565000e+01	  -3.6849000e+01	
   1.5060000e+00	   1.8446000e+00	  -1.3460000e+01	   6.7689000e+00	  -2.3554000e+00	   8.6574000e+00	   6.4223000e+01	  -9.4565000e+01	  -5.0849000e+01	
   1.5080000e+00	   1.4464000e-01	  -1.1960000e+01	   4.7689000e+00	  -3.3554000e+00	   6.9574000e+00	   6.4223000e+01	  -7.4565000e+01	  -4.6849000e+01	
   1.5100000e+00	  -1.2554000e+00	  -1.2360000e+01	   4.7689000e+00	  -3.5554000e+00	   4.8574000e+00	   5.6223000e+01	  -7.8565000e+01	  -4.2849000e+01	
   1.5120000e+00	  -4.5536000e-01	  -9.9596000e+00	   4.7689000e+00	  -3.7554000e+00	   3.6574000e+00	   6.6223000e+01	  -5.4565000e+01	  -3.0849000e+01	
   1.5140000e+00	  -1.4554000e+00	  -9.6596000e+00	   4.8689000e+00	  -4.0554000e+00	   4.7574000e+00	   7.6223000e+01	  -3.0565000e+01	  -8.8493000e+00	
   1.5160000e+00	   2.4464000e-01	  -8.7596000e+00	   4.3689000e+00	  -4.3554000e+00	   4.4574000e+00	   5.4223000e+01	  -3.8565000e+01	  -1.2849000e+01	
   1.5180000e+00	  -2.6554000e+00	  -9.4596000e+00	   1.8689000e+00	  -4.5554000e+00	   3.3574000e+00	   2.4223000e+01	  -6.4565000e+01	  -2.2849000e+01	
   1.5200000e+00	  -2.2554000e+00	  -8.2596000e+00	   2.2689000e+00	  -5.3554000e+00	   2.5574000e+00	   1.4223000e+01	  -5.8565000e+01	  -2.4849000e+01	
   1.5220000e+00	  -2.2554000e+00	  -6.5596000e+00	   4.5689000e+00	  -4.4554000e+00	   4.7574000e+00	   3.8223000e+01	  -2.4565000e+01	  -6.8493000e+00	
   1.5240000e+00	  -4.5536000e-01	  -4.6596000e+00	   6.1689000e+00	  -6.3554000e+00	   4.0574000e+00	   4.0223000e+01	  -2.6565000e+01	   1.1507000e+00	
   1.5260000e+00	   1.6446000e+00	  -1.5596000e+00	   5.7689000e+00	  -4.9554000e+00	   3.5574000e+00	   4.2223000e+01	  -2.6565000e+01	  -4.8493000e+00	
   1.5280000e+00	  -7.5536000e-01	  -3.9596000e+00	   3.0689000e+00	  -5.5554000e+00	   9.5743000e-01	   2.8223000e+01	  -3.2565000e+01	  -8.8493000e+00	
   1.5300000e+00	  -1.5536000e-01	  -2.8596000e+00	   1.1689000e+00	  -3.7554000e+00	  -8.4257000e-01	   2.4223000e+01	  -2.6565000e+01	  -1.0849000e+01	
   1.5320000e+00	   1.5446000e+00	  -9.5961000e-01	  -1.2311000e+00	  -2.7554000e+00	   1.2574000e+00	   3.4223000e+01	  -1.6565000e+01	  -1.2849000e+01	
   1.5340000e+00	   8.8446000e+00	   6.7404000e+00	  -4.0311000e+00	  -2.0554000e+00	   4.2574000e+00	   4.8223000e+01	   7.4350000e+00	   2.3151000e+01	
   1.5360000e+00	   1.7745000e+01	   1.5440000e+01	  -1.1331000e+01	  -4.0554000e+00	  -1.9426000e+00	   1.0223000e+01	  -1.6565000e+01	   2.3151000e+01	
   1.5380000e+00	   1.4045000e+01	   1.5540000e+01	  -1.5331000e+01	  -4.5554000e+00	  -8.0426000e+00	   2.0223000e+01	  -1.2565000e+01	   1.5151000e+01	
   1.5400000e+00	   4.3446000e+00	   7.3404000e+00	  -1.5231000e+01	  -8.6554000e+00	  -1.4743000e+01	  -1.7777000e+01	  -2.8565000e+01	  -1.0849000e+01	
   1.5420000e+00	  -1.2755000e+01	  -5.2596000e+00	  -3.3311000e+00	  -9.7554000e+00	  -1.5143000e+01	   6.2229000e+00	  -2.2565000e+01	  -8.8493000e+00	
   1.5440000e+00	  -1.6655000e+01	  -1.0560000e+01	   4.7689000e+00	  -1.4555000e+01	  -1.2343000e+01	   4.2229000e+00	  -5.6500000e-01	   1.3151000e+01	
   1.5460000e+00	  -8.2554000e+00	  -4.2596000e+00	   4.2689000e+00	  -1.1755000e+01	  -9.0426000e+00	  -1.7771000e+00	  -2.5650000e+00	   2.7151000e+01	
   1.5480000e+00	  -4.6554000e+00	   5.4039000e-01	   1.0689000e+00	  -9.4554000e+00	  -7.5426000e+00	   6.2229000e+00	   9.4350000e+00	   4.3151000e+01	
   1.5500000e+00	  -6.0554000e+00	   1.2404000e+00	   2.6893000e-01	  -8.3554000e+00	  -7.4426000e+00	  -1.7771000e+00	   7.4350000e+00	   3.9151000e+01	
   1.5520000e+00	  -5.9554000e+00	   9.4039000e-01	   6.6893000e-01	  -9.0554000e+00	  -7.1426000e+00	  -1.5777000e+01	  -2.5650000e+00	   2.1151000e+01	
   1.5540000e+00	  -3.8554000e+00	   3.3404000e+00	   1.7689000e+00	  -9.0554000e+00	  -7.0426000e+00	  -3.7771000e+00	   9.4350000e+00	   2.9151000e+01	
   1.5560000e+00	  -4.4554000e+00	   5.5404000e+00	   6.8929000e-02	  -6.9554000e+00	  -8.9426000e+00	  -1.7771000e+00	   1.9435000e+01	   3.7151000e+01	
